Mock Spectral File for Unit Tests


>>>>>Begin Spectral Data<<<<<
339.45932	-2.8312297
339.84412	-2.8312297
340.22887	-2.8312297
340.61357	-0
340.99822	-0.0693663
341.38282	-0.0283881
341.76738	-0.0618071
342.15188	0.3331946
342.53634	-0
342.92074	-0.2551452
343.3051	-0.0729769
343.68941	-0.591266
344.07367	0.0556217
344.45788	0.3044936
344.84204	-0
345.22615	-0.4819025
345.61021	-0
345.99423	0.2024452
346.37819	-0
346.76211	-0
347.14597	-0.0724712
347.52979	-0
347.91356	-0
348.29728	0.051237
348.68095	0.025956
349.06457	0.179704
349.44814	0.2970127
349.83166	0.202006
350.21514	0.1291364
350.59856	0.1472513
350.98193	0.1436516
351.36526	0.1921762
351.74854	0.0196152
352.13176	0.3063629
352.51494	0.1504112
352.89807	0.2081972
353.28115	0.1474352
353.66418	0.1251741
354.04716	0.173046
354.4301	0.118965
354.81298	0.1929006
355.19581	0.1719336
355.5786	0.1965999
355.96133	0.2548279
356.34402	0.0684014
356.72666	0.5291492
357.10924	0.1483236
357.49178	0.2155674
357.87427	0.190605
358.25671	0.2984748
358.6391	0.1532385
359.02144	0.1407736
359.40374	0.2775043
359.78598	0.164412
360.16817	0.1844721
360.55032	0.3339632
360.93241	0.1417036
361.31446	0.4251632
361.69646	0.2635446
362.0784	0.3321178
362.4603	0.0854929
362.84215	0.1933418
363.22395	0.2978885
363.6057	0.2069493
363.9874	0.3167118
364.36905	0.1698966
364.75066	0.1366781
365.13221	0.1189829
365.51371	0.1964042
365.89517	0.2286269
366.27657	0.1364972
366.65793	-0.0510848
367.03924	0.1185058
367.42049	0.1310285
367.8017	0.1802229
368.18286	0.2277858
368.56397	0.2228016
368.94503	0.1361913
369.32604	0.1635099
369.707	0.2103549
370.08792	0.1637683
370.46878	0.0714776
370.84959	0.1899522
371.23035	0.1957383
371.61107	0.2041332
371.99173	0.1843969
372.37235	0.1410939
372.75292	0.1423273
373.13343	0.2187864
373.5139	0.2704546
373.89432	0.1527359
374.27469	0.1912263
374.65501	0.1976237
375.03528	0.171727
375.4155	0.3220314
375.79567	0.1455835
376.17579	0.1250701
376.55586	0.2176537
376.93589	0.0959379
377.31586	0.1645182
377.69578	0.2318425
378.07566	0.0797399
378.45548	0.1256182
378.83526	0.0948909
379.21499	0.1021652
379.59466	0.2132191
379.97429	0.2823472
380.35387	0.1852917
380.7334	0.0997993
381.11288	0.2165555
381.49231	0.0582216
381.87169	0.1177089
382.25102	0.064309
382.6303	0.1367668
383.00953	0.3644125
383.38871	0.2747162
383.76784	0.1551574
384.14693	0.097511
384.52596	0.2889828
384.90494	0.2391671
385.28388	0.1921908
385.66276	0.2104581
386.0416	0.2089315
386.42039	0.1943638
386.79912	0.2886303
387.17781	0.1583301
387.55645	0.2293176
387.93503	0.1676109
388.31357	0.1764699
388.69206	0.0822739
389.0705	0.0405991
389.44889	0.262578
389.82723	0.1188599
390.20552	0.1201321
390.58376	0.2211925
390.96195	0.3376287
391.3401	0.1339116
391.71819	0.1805451
392.09623	0.1350242
392.47422	0.2637001
392.85217	0.2184397
393.23006	0.140739
393.60791	0.1554896
393.9857	0.226614
394.36345	0.1727765
394.74114	0.1397528
395.11879	0.1902625
395.49638	0.1537318
395.87393	0.1808086
396.25143	0.1686155
396.62887	0.2029217
397.00627	0.2163577
397.38362	0.2076503
397.76092	0.0544511
398.13817	0.1378917
398.51537	0.1872825
398.89252	0.2640846
399.26962	0.1402247
399.64667	0.1843066
400.02367	0.1629872
400.40062	0.2153846
400.77752	0.254486
401.15437	0.1697018
401.53117	0.2560057
401.90792	0.1223277
402.28463	0.132393
402.66128	0.1298426
403.03788	0.2314785
403.41444	0.1762005
403.79094	0.1699884
404.16739	0.1174926
404.5438	0.158372
404.92015	0.1163438
405.29646	0.1326388
405.67271	0.1566316
406.04892	0.209168
406.42507	0.2344645
406.80118	0.1786796
407.17724	0.0870882
407.55324	0.1447731
407.9292	0.0917579
408.30511	0.1744258
408.68096	0.2261347
409.05677	0.1817525
409.43253	0.0720034
409.80824	0.1708089
410.18389	0.2024586
410.5595	0.1283359
410.93506	0.0526003
411.31057	0.145987
411.68603	0.0862514
412.06144	0.1331584
412.4368	0.114312
412.81211	0.0773011
413.18737	0.1340475
413.56258	0.1267671
413.93774	0.1557747
414.31285	0.147629
414.68791	0.0548752
415.06292	0.1270379
415.43788	0.1349591
415.81279	0.1683054
416.18765	0.1613452
416.56246	0.1156764
416.93723	0.1072377
417.31194	0.1282946
417.6866	0.0935031
418.06121	0.1348088
418.43577	0.122508
418.81029	0.1425573
419.18475	0.1350665
419.55916	0.1107977
419.93352	0.1095063
420.30784	0.1058512
420.6821	0.1046642
421.05631	0.1147975
421.43048	0.1142335
421.80459	0.1135482
422.17865	0.1426255
422.55267	0.1171505
422.92663	0.1106814
423.30054	0.1076801
423.67441	0.1082509
424.04822	0.1162282
424.42199	0.1000905
424.7957	0.0987839
425.16936	0.1152312
425.54298	0.1073331
425.91654	0.1079895
426.29006	0.0926398
426.66352	0.1060597
427.03693	0.0992363
427.4103	0.1006614
427.78361	0.1077581
428.15688	0.1026673
428.53009	0.108883
428.90326	0.0953546
429.27637	0.0983309
429.64944	0.1037779
430.02245	0.1006584
430.39542	0.099689
430.76833	0.0963673
431.1412	0.1057881
431.51401	0.1026642
431.88677	0.0975577
432.25949	0.0989477
432.63215	0.10055
433.00477	0.0955006
433.37733	0.095448
433.74985	0.0986803
434.12231	0.0982535
434.49473	0.1032669
434.86709	0.097273
435.23941	0.0996831
435.61167	0.0977344
435.98389	0.0992307
436.35605	0.0938474
436.72816	0.0991438
437.10023	0.1003803
437.47224	0.0990056
437.84421	0.0993741
438.21612	0.0980936
438.58798	0.0981129
438.9598	0.1001655
439.33156	0.100382
439.70328	0.0974813
440.07494	0.1025547
440.44655	0.1017557
440.81812	0.1005117
441.18963	0.1018127
441.56109	0.1022823
441.93251	0.0994833
442.30387	0.1029186
442.67518	0.1022357
443.04645	0.0989591
443.41766	0.1021923
443.78882	0.1005909
444.15993	0.101426
444.531	0.1037864
444.90201	0.102606
445.27297	0.1032625
445.64388	0.1008848
446.01475	0.1023397
446.38556	0.1029309
446.75632	0.1022454
447.12703	0.1031278
447.49769	0.1030582
447.8683	0.1037862
448.23886	0.104429
448.60937	0.103202
448.97983	0.104562
449.35024	0.1038268
449.7206	0.1043942
450.09091	0.1035642
450.46117	0.1041769
450.83138	0.104829
451.20154	0.1040913
451.57165	0.104155
451.94171	0.1049925
452.31172	0.104582
452.68168	0.1050966
453.05159	0.1051564
453.42144	0.1053075
453.79125	0.105748
454.16101	0.106646
454.53072	0.1065952
454.90037	0.1071246
455.26998	0.1081578
455.63954	0.1082167
456.00904	0.1090783
456.3785	0.1095235
456.74791	0.1108009
457.11726	0.1109192
457.48657	0.1114021
457.85582	0.1120601
458.22503	0.1137681
458.59418	0.1140824
458.96329	0.1134623
459.33234	0.1133692
459.70134	0.1147885
460.0703	0.1146017
460.4392	0.115425
460.80805	0.1160802
461.17685	0.1154232
461.54561	0.1144286
461.91431	0.1153586
462.28296	0.1170564
462.65156	0.1161522
463.02011	0.1163118
463.38861	0.1162456
463.75706	0.1160464
464.12546	0.1170412
464.49381	0.1169403
464.86211	0.1170694
465.23036	0.1172475
465.59856	0.1174494
465.96671	0.1179462
466.3348	0.1180858
466.70285	0.1176637
467.07085	0.1174446
467.43879	0.1195182
467.80669	0.1179575
468.17454	0.119231
468.54233	0.1190785
468.91008	0.1178501
469.27777	0.1181695
469.64541	0.1195659
470.01301	0.1191579
470.38055	0.1199158
470.74804	0.1203619
471.11549	0.1204207
471.48288	0.1210065
471.85022	0.1210046
472.21751	0.1211375
472.58475	0.1217447
472.95194	0.1212636
473.31908	0.1206069
473.68617	0.1216896
474.05321	0.1205533
474.4202	0.122436
474.78714	0.1226006
475.15403	0.1228036
475.52086	0.1241867
475.88765	0.1233697
476.25439	0.1224958
476.62107	0.1237438
476.98771	0.12339
477.35429	0.1242583
477.72083	0.1243609
478.08731	0.1249368
478.45374	0.1252369
478.82013	0.1253279
479.18646	0.1250752
479.55274	0.1244042
479.91897	0.1248266
480.28515	0.1250855
480.65128	0.1257946
481.01736	0.1258729
481.38339	0.1272952
481.74937	0.1261007
482.1153	0.1273448
482.48118	0.1257765
482.84701	0.12718
483.21278	0.1270911
483.57851	0.126596
483.94418	0.1283221
484.30981	0.1270315
484.67538	0.1278252
485.04091	0.1278888
485.40638	0.1268658
485.7718	0.1282278
486.13718	0.1283636
486.5025	0.1290263
486.86777	0.1299606
487.23299	0.1298108
487.59816	0.1298566
487.96328	0.1303984
488.32835	0.1296222
488.69336	0.1305518
489.05833	0.1306506
489.42325	0.1309833
489.78811	0.1305731
490.15293	0.1302927
490.51769	0.1306877
490.88241	0.1306561
491.24707	0.1319311
491.61168	0.1322027
491.97625	0.1324858
492.34076	0.1326377
492.70522	0.1324302
493.06963	0.1337615
493.43399	0.1343515
493.7983	0.1341561
494.16256	0.1347427
494.52677	0.1347971
494.89092	0.1359733
495.25503	0.1358206
495.61908	0.1370643
495.98309	0.1372556
496.34704	0.1377376
496.71095	0.1380462
497.0748	0.1376519
497.4386	0.1393311
497.80235	0.1400749
498.16606	0.1402685
498.52971	0.1415681
498.89331	0.1414016
499.25685	0.1416094
499.62035	0.1423319
499.9838	0.1437745
500.3472	0.1423553
500.71054	0.1438855
501.07384	0.1452626
501.43708	0.1450409
501.80027	0.145603
502.16342	0.1466242
502.52651	0.1463554
502.88955	0.1471013
503.25254	0.1479436
503.61548	0.1492903
503.97837	0.1495958
504.34121	0.1498508
504.704	0.1504027
505.06673	0.1496379
505.42942	0.1498925
505.79205	0.1511384
506.15464	0.1513106
506.51717	0.1511109
506.87965	0.1523995
507.24209	0.1533546
507.60447	0.1535323
507.9668	0.1537776
508.32908	0.1541885
508.69131	0.1549462
509.05348	0.1553351
509.41561	0.1556667
509.77769	0.1561172
510.13971	0.1566336
510.50169	0.1570578
510.86361	0.1581969
511.22548	0.1580276
511.58731	0.1585325
511.94908	0.1597816
512.3108	0.1592774
512.67247	0.1605684
513.03409	0.160744
513.39565	0.1614416
513.75717	0.1616043
514.11864	0.1618206
514.48005	0.162766
514.84141	0.1639749
515.20273	0.1634633
515.56399	0.1641614
515.9252	0.1650534
516.28636	0.1650258
516.64747	0.1656866
517.00853	0.1661598
517.36954	0.1670012
517.7305	0.1678248
518.0914	0.1684753
518.45226	0.1683768
518.81306	0.1688702
519.17381	0.1692768
519.53452	0.1702506
519.89517	0.1704018
520.25577	0.1699461
520.61632	0.1711917
520.97682	0.1722586
521.33726	0.1727338
521.69766	0.1733915
522.05801	0.1728591
522.4183	0.1748856
522.77854	0.1750844
523.13874	0.1753922
523.49888	0.1762953
523.85897	0.176572
524.21901	0.1763777
524.579	0.1770711
524.93893	0.1778891
525.29882	0.1776878
525.65866	0.1774812
526.01844	0.1789695
526.37818	0.1789137
526.73786	0.1807375
527.09749	0.180148
527.45707	0.1815644
527.8166	0.1820292
528.17608	0.182296
528.53551	0.1828759
528.89488	0.1828274
529.25421	0.1835864
529.61348	0.1841218
529.97271	0.1847634
530.33188	0.1855693
530.691	0.1858025
531.05007	0.1866863
531.40909	0.186693
531.76806	0.1883608
532.12697	0.1887142
532.48584	0.1898925
532.84465	0.1901031
533.20342	0.1905914
533.56213	0.1911699
533.92079	0.1919818
534.2794	0.1921268
534.63796	0.1934577
534.99647	0.1939302
535.35493	0.194952
535.71333	0.1952674
536.07169	0.1959696
536.42999	0.1969764
536.78824	0.1977155
537.14645	0.1979651
537.5046	0.1990645
537.86269	0.1994203
538.22074	0.1997673
538.57874	0.2003134
538.93669	0.2007642
539.29458	0.2023092
539.65242	0.2020481
540.01022	0.2028256
540.36796	0.2042793
540.72565	0.2044638
541.08329	0.2046768
541.44087	0.2059617
541.79841	0.2066985
542.1559	0.2081675
542.51333	0.2081504
542.87071	0.2085374
543.22804	0.209867
543.58532	0.2101507
543.94255	0.2113042
544.29973	0.2111584
544.65686	0.2114873
545.01393	0.2126071
545.37096	0.2138487
545.72793	0.214198
546.08485	0.2148706
546.44172	0.2153672
546.79854	0.2157777
547.15531	0.216298
547.51203	0.217483
547.86869	0.217654
548.22531	0.2188313
548.58187	0.2198679
548.93838	0.2193878
549.29484	0.219416
549.65125	0.2198566
550.00761	0.2211441
550.36392	0.2217024
550.72017	0.222141
551.07638	0.2233151
551.43253	0.223331
551.78863	0.2242598
552.14468	0.2241593
552.50068	0.2250475
552.85663	0.2254644
553.21253	0.2261943
553.56837	0.2264447
553.92417	0.2273308
554.27991	0.2269573
554.6356	0.2280482
554.99124	0.2286372
555.34683	0.2284434
555.70237	0.2294084
556.05785	0.2298376
556.41329	0.2301001
556.76867	0.2311089
557.124	0.2308925
557.47928	0.2309298
557.83451	0.2310772
558.18969	0.2319866
558.54482	0.2327511
558.89989	0.2325589
559.25491	0.2315864
559.60989	0.2329534
559.96481	0.2328609
560.31968	0.2331462
560.67449	0.2338296
561.02926	0.2337103
561.38398	0.2347493
561.73864	0.2335117
562.09325	0.2338661
562.44781	0.2339103
562.80232	0.2346624
563.15678	0.2338798
563.51119	0.233689
563.86554	0.2337767
564.21985	0.2338997
564.5741	0.2340763
564.9283	0.2332628
565.28245	0.2336607
565.63655	0.2326196
565.9906	0.2340497
566.34459	0.233613
566.69854	0.2326298
567.05243	0.2324062
567.40627	0.2323541
567.76006	0.2322877
568.1138	0.23145
568.46748	0.2307875
568.82112	0.2314466
569.1747	0.2297174
569.52823	0.2303046
569.88172	0.2294693
570.23514	0.2290792
570.58852	0.2284273
570.94185	0.2275662
571.29512	0.2277739
571.64835	0.2270168
572.00152	0.226644
572.35464	0.2256522
572.70771	0.2252707
573.06072	0.2234935
573.41369	0.2236268
573.7666	0.2227144
574.11947	0.2220371
574.47228	0.2216683
574.82504	0.2202268
575.17774	0.2197453
575.5304	0.2186736
575.883	0.2189574
576.23556	0.2180751
576.58806	0.2173809
576.94051	0.2166723
577.29291	0.2158378
577.64525	0.2142566
577.99755	0.2128716
578.34979	0.2124974
578.70198	0.2111929
579.05412	0.2094837
579.40621	0.2090296
579.75825	0.2073155
580.11024	0.2068297
580.46217	0.2050957
580.81405	0.2046668
581.16588	0.2036269
581.51766	0.2028509
581.86939	0.201638
582.22107	0.20028
582.57269	0.1994341
582.92426	0.1976991
583.27578	0.1967079
583.62725	0.1954684
583.97867	0.1947695
584.33004	0.1936569
584.68135	0.1928302
585.03261	0.1912794
585.38383	0.190199
585.73498	0.1887416
586.08609	0.1873131
586.43715	0.1862037
586.78815	0.1853551
587.13911	0.1832946
587.49001	0.1827294
587.84086	0.1809339
588.19165	0.1798743
588.5424	0.1790002
588.89309	0.1785175
589.24374	0.1759457
589.59433	0.1740577
589.94487	0.1733312
590.29535	0.1717469
590.64579	0.1715651
590.99617	0.1690283
591.3465	0.1681769
591.69679	0.1672273
592.04701	0.1661703
592.39719	0.1642625
592.74732	0.1633521
593.09739	0.161711
593.44741	0.1604981
593.79738	0.1593283
594.1473	0.1583562
594.49717	0.1560717
594.84698	0.1553389
595.19674	0.1538849
595.54645	0.1528553
595.89611	0.1512124
596.24572	0.1502534
596.59528	0.1494525
596.94478	0.1471629
597.29423	0.1470734
597.64363	0.1459808
597.99298	0.1443802
598.34228	0.142975
598.69152	0.1418633
599.04072	0.1413804
599.38986	0.1399271
599.73895	0.1386975
600.08798	0.1373383
600.43697	0.1367665
600.7859	0.134535
601.13479	0.13348
601.48362	0.1327502
601.83239	0.1317158
602.18112	0.1296331
602.5298	0.1293373
602.87842	0.1276318
603.22699	0.1261292
603.57551	0.1249456
603.92397	0.1239784
604.27239	0.1225951
604.62075	0.1215734
604.96907	0.1202801
605.31732	0.1189258
605.66553	0.1182401
606.01369	0.1166507
606.36179	0.1153008
606.70984	0.1149221
607.05784	0.1129211
607.40579	0.1126152
607.75369	0.1117503
608.10153	0.1111952
608.44933	0.1097084
608.79707	0.1086999
609.14475	0.1078847
609.49239	0.1067682
609.83998	0.1056826
610.18751	0.1044192
610.53499	0.1035641
610.88242	0.1022439
611.2298	0.1013104
611.57712	0.1003475
611.92439	0.0988551
612.27161	0.0987568
612.61878	0.0963813
612.9659	0.0960874
613.31297	0.0948658
613.65998	0.0946478
614.00694	0.0931013
614.35385	0.0920185
614.70071	0.0917425
615.04751	0.0901823
615.39426	0.0898582
615.74097	0.0889819
616.08761	0.0885969
616.43421	0.0867349
616.78076	0.0859864
617.12725	0.085159
617.47369	0.0848574
617.82008	0.0843558
618.16642	0.0835624
618.5127	0.0819224
618.85893	0.0808126
619.20512	0.08041
619.55124	0.0808031
619.89732	0.0791122
620.24335	0.078412
620.58932	0.0768968
620.93524	0.0765966
621.28111	0.0761555
621.62692	0.0751392
621.97269	0.0746336
622.3184	0.0741776
622.66406	0.0737509
623.00967	0.0733868
623.35522	0.072494
623.70073	0.0716433
624.04618	0.0707428
624.39158	0.0702673
624.73693	0.0700224
625.08222	0.0695865
625.42747	0.068663
625.77266	0.068481
626.1178	0.0682568
626.46288	0.0670969
626.80792	0.0669891
627.1529	0.0661987
627.49783	0.0661117
627.84271	0.0655063
628.18754	0.0656236
628.53231	0.0651769
628.87703	0.06453
629.2217	0.0644314
629.56632	0.0641707
629.91088	0.0634387
630.2554	0.0629985
630.59986	0.0630002
630.94427	0.0625977
631.28862	0.0624205
631.63293	0.0620483
631.97718	0.0619655
632.32138	0.061377
632.66553	0.0612392
633.00963	0.0607726
633.35367	0.0601841
633.69766	0.0600749
634.0416	0.0598845
634.38549	0.0597523
634.72932	0.0592617
635.0731	0.0594509
635.41683	0.0589561
635.76051	0.0580433
636.10414	0.0579226
636.44771	0.058227
636.79123	0.0577873
637.1347	0.0580717
637.47812	0.0581905
637.82148	0.0582054
638.16479	0.0582823
638.50805	0.0581181
638.85126	0.0575062
639.19442	0.0575081
639.53752	0.0574937
639.88057	0.0575016
640.22357	0.0577078
640.56652	0.057372
640.90941	0.0571755
641.25225	0.0569487
641.59504	0.0571803
641.93778	0.057202
642.28046	0.0566525
642.6231	0.0573479
642.96568	0.0572163
643.3082	0.0568517
643.65068	0.0571214
643.9931	0.0566595
644.33547	0.0565421
644.67779	0.0567685
645.02006	0.0562926
645.36227	0.0557351
645.70443	0.0561921
646.04654	0.0560809
646.3886	0.0559286
646.7306	0.0560416
647.07255	0.0559717
647.41445	0.0560835
647.7563	0.05654
648.0981	0.0555363
648.43984	0.0551293
648.78153	0.0555588
649.12317	0.0556456
649.46475	0.0551118
649.80628	0.0555861
650.14777	0.0557435
650.48919	0.0556547
650.83057	0.0548096
651.17189	0.0550328
651.51316	0.0556843
651.85438	0.0556427
652.19555	0.0549949
652.53666	0.054856
652.87772	0.0555372
653.21873	0.0550179
653.55969	0.0552742
653.90059	0.0546538
654.24144	0.0543296
654.58224	0.0543498
654.92299	0.0538747
655.26368	0.0537027
655.60432	0.0540705
655.94491	0.0539926
656.28545	0.0541087
656.62593	0.0540729
656.96637	0.0538045
657.30675	0.0534628
657.64707	0.0535214
657.98735	0.052881
658.32757	0.0527443
658.66774	0.0529446
659.00785	0.0533788
659.34792	0.0530865
659.68793	0.0527958
660.02789	0.0525853
660.3678	0.0521851
660.70765	0.0523967
661.04745	0.0516787
661.3872	0.0516861
661.7269	0.0517973
662.06654	0.0514226
662.40613	0.0512879
662.74567	0.0511866
663.08516	0.0505623
663.42459	0.051358
663.76397	0.0509677
664.1033	0.0513705
664.44258	0.0500125
664.7818	0.0512467
665.12097	0.0507688
665.46009	0.050658
665.79916	0.0507816
666.13817	0.0509782
666.47713	0.0509446
666.81604	0.0507724
667.15489	0.0505862
667.4937	0.0500538
667.83245	0.0513678
668.17115	0.0507271
668.50979	0.0508604
668.84838	0.0506529
669.18692	0.0498792
669.52541	0.0503705
669.86385	0.0509094
670.20223	0.0503525
670.54056	0.0510498
670.87883	0.0502293
671.21706	0.0505392
671.55523	0.0505551
671.89335	0.0509104
672.23141	0.0506517
672.56943	0.0509011
672.90739	0.0498541
673.2453	0.0505324
673.58315	0.0501149
673.92095	0.0501989
674.2587	0.0498581
674.5964	0.049994
674.93405	0.0498243
675.27164	0.0496428
675.60918	0.0493376
675.94666	0.0483029
676.2841	0.0494176
676.62148	0.048807
676.95881	0.0489083
677.29608	0.0492307
677.63331	0.0490083
677.97048	0.0490002
678.30759	0.0490682
678.64466	0.0494262
678.98167	0.0487364
679.31863	0.0483721
679.65554	0.0488195
679.99239	0.0485205
680.32919	0.0486117
680.66594	0.0494979
681.00264	0.0484876
681.33928	0.0486909
681.67587	0.0491347
682.01241	0.0483156
682.34889	0.0491841
682.68532	0.0493334
683.0217	0.0494039
683.35803	0.0494961
683.6943	0.0483365
684.03052	0.0480635
684.36669	0.0487769
684.70281	0.0480979
685.03887	0.0485773
685.37488	0.0470979
685.71083	0.0473744
686.04674	0.0468174
686.38259	0.047076
686.71839	0.047226
687.05413	0.0466129
687.38982	0.0460357
687.72546	0.0464012
688.06105	0.0455972
688.39658	0.0461434
688.73207	0.045389
689.06749	0.0448509
689.40287	0.0458292
689.73819	0.0455507
690.07346	0.0449864
690.40868	0.0466022
690.74384	0.0462344
691.07895	0.0464379
691.41401	0.046357
691.74902	0.0467577
692.08397	0.0459045
692.41887	0.0459736
692.75372	0.0451582
693.08851	0.0456713
693.42325	0.0455517
693.75794	0.0470237
694.09257	0.045825
694.42716	0.0479105
694.76168	0.046297
695.09616	0.0476068
695.43058	0.0473685
695.76495	0.0458762
696.09927	0.0467543
696.43354	0.0469873
696.76775	0.0459282
697.10191	0.046947
697.43601	0.0466147
697.77007	0.0465355
698.10406	0.0461846
698.43801	0.0468466
698.77191	0.0457973
699.10575	0.0465734
699.43953	0.0459638
699.77327	0.0469524
700.10695	0.0469063
700.44058	0.0468199
700.77416	0.0476547
701.10768	0.0467591
701.44115	0.046725
701.77457	0.0460124
702.10793	0.0477325
702.44124	0.0450025
702.7745	0.0478603
703.1077	0.0469904
703.44086	0.0469421
703.77395	0.0471731
704.107	0.0461076
704.43999	0.0474266
704.77293	0.0469915
705.10582	0.0467514
705.43865	0.0461943
705.77143	0.046143
706.10416	0.0477636
706.43684	0.0474617
706.76946	0.0475097
707.10203	0.0464867
707.43454	0.0461718
707.767	0.0486124
708.09941	0.0483174
708.43177	0.0469074
708.76407	0.0474244
709.09632	0.0480175
709.42852	0.048952
709.76066	0.0469307
710.09275	0.0464153
710.42479	0.0471185
710.75678	0.0465874
711.08871	0.0477556
711.42058	0.0467832
711.75241	0.0452998
712.08418	0.0482259
712.4159	0.0471319
712.74757	0.0469187
713.07918	0.0470817
713.41074	0.0480751
713.74224	0.0460835
714.0737	0.0472653
714.4051	0.0481279
714.73644	0.0477299
715.06774	0.0460155
715.39898	0.0492524
715.73017	0.0475379
716.0613	0.0459534
716.39238	0.0461921
716.72341	0.0472658
717.05438	0.0482026
717.38531	0.0465006
717.71617	0.0474071
718.04699	0.0483844
718.37775	0.0470748
718.70846	0.0464168
719.03911	0.0465584
719.36972	0.047547
719.70027	0.0473408
720.03076	0.0481096
720.3612	0.0497441
720.69159	0.0472428
721.02193	0.0493345
721.35221	0.0479855
721.68244	0.048223
722.01262	0.0449842
722.34274	0.0472473
722.67281	0.0484301
723.00283	0.0474781
723.33279	0.0481507
723.6627	0.0472279
723.99256	0.0479023
724.32236	0.0478201
724.65211	0.0492342
724.98181	0.0485317
725.31145	0.0480174
725.64104	0.0503425
725.97058	0.0481329
726.30007	0.0490376
726.6295	0.0490765
726.95887	0.0506671
727.2882	0.0472341
727.61747	0.0496465
727.94669	0.0479324
728.27585	0.0508187
728.60496	0.053327
728.93402	0.0496273
729.26302	0.0513918
729.59197	0.0505151
729.92087	0.0504043
730.24971	0.0510375
730.57851	0.0500632
730.90724	0.0511617
731.23593	0.0500081
731.56456	0.0527506
731.89314	0.0532612
732.22166	0.0512338
732.55013	0.0503541
732.87855	0.0539821
733.20691	0.0524312
733.53522	0.0510715
733.86348	0.0512122
734.19168	0.0571705
734.51983	0.0516227
734.84793	0.0534639
735.17597	0.0523622
735.50396	0.0535323
735.8319	0.0519902
736.15978	0.0559982
736.48761	0.0543116
736.81539	0.0543046
737.14311	0.0542884
737.47078	0.0553412
737.7984	0.0562859
738.12596	0.0539822
738.45347	0.056016
738.78093	0.0550413
739.10833	0.0527744
739.43568	0.0553047
739.76297	0.0561819
740.09022	0.053476
740.4174	0.0537803
740.74454	0.0542886
741.07162	0.055324
741.39865	0.0569213
741.72562	0.0537132
742.05255	0.0522213
742.37941	0.0526721
742.70623	0.0560301
743.03299	0.0558977
743.3597	0.0534366
743.68635	0.0553301
744.01295	0.0530374
744.3395	0.0561912
744.66599	0.0555566
744.99243	0.054966
745.31882	0.0535537
745.64515	0.0570527
745.97143	0.0542806
746.29765	0.0546931
746.62383	0.0543251
746.94994	0.05277
747.27601	0.0529024
747.60202	0.0550034
747.92798	0.0547808
748.25388	0.0556367
748.57973	0.0552832
748.90553	0.0526201
749.23127	0.0531851
749.55696	0.0566721
749.8826	0.0552557
750.20818	0.0559482
750.53371	0.052379
750.85919	0.0522843
751.18461	0.0514627
751.50998	0.05237
751.8353	0.0543375
752.16056	0.0519238
752.48576	0.0521757
752.81092	0.0585367
753.13602	0.0521456
753.46107	0.0560712
753.78606	0.0540072
754.111	0.0553659
754.43589	0.054382
754.76072	0.0589963
755.0855	0.0547129
755.41022	0.0554108
755.73489	0.059308
756.05951	0.0585323
756.38407	0.0551333
756.70859	0.0556784
757.03304	0.0563186
757.35745	0.0584648
757.6818	0.0590197
758.00609	0.0571858
758.33033	0.0612688
758.65452	0.0590232
758.97866	0.0574357
759.30274	0.0587953
759.62677	0.054561
759.95074	0.0574423
760.27466	0.0587488
760.59853	0.0572219
760.92234	0.056654
761.2461	0.0578152
761.5698	0.0546927
761.89345	0.056598
762.21705	0.0578502
762.5406	0.057509
762.86409	0.055923
763.18752	0.0570782
763.5109	0.0535339
763.83423	0.0560175
764.15751	0.0540019
764.48073	0.0544901
764.8039	0.057509
765.12701	0.0561475
765.45007	0.0541285
765.77308	0.0614516
766.09603	0.0547484
766.41893	0.0554888
766.74178	0.0531862
767.06457	0.0611018
767.38731	0.0548593
767.70999	0.0565862
768.03262	0.0563816
768.3552	0.0621359
768.67772	0.051485
769.00019	0.0498597
769.3226	0.0578804
769.64496	0.0528713
769.96727	0.0573748
770.28952	0.0511049
770.61172	0.0586476
770.93387	0.055642
771.25596	0.0552301
771.578	0.0577004
771.89998	0.0580393
772.22191	0.0549457
772.54379	0.0556031
772.86561	0.0605248
773.18738	0.0580748
773.5091	0.051076
773.83076	0.0562201
774.15236	0.0448211
774.47392	0.059013
774.79542	0.0548323
775.11686	0.0556169
775.43825	0.0553934
775.75959	0.0490219
776.08087	0.0611264
776.4021	0.0595811
776.72328	0.0549633
777.0444	0.0568112
777.36547	0.0590618
777.68649	0.0618328
778.00745	0.0535242
778.32835	0.0671768
778.64921	0.0637417
778.97	0.0500138
779.29075	0.0555984
779.61144	0.0510251
779.93208	0.0615227
780.25266	0.0551796
780.57319	0.0614368
780.89366	0.057294
781.21408	0.0594777
781.53445	0.0614624
781.85476	0.056546
782.17502	0.0628903
782.49523	0.0569427
782.81538	0.0564632
783.13548	0.0489547
783.45552	0.0675349
783.77551	0.0553533
784.09544	0.0599481
784.41533	0.0523038
784.73515	0.0570069
785.05493	0.0517503
785.37465	0.0501476
785.69431	0.0536121
786.01392	0.0651975
786.33348	0.0631663
786.65298	0.0500127
786.97243	0.0608774
787.29183	0.0650653
787.61117	0.0565731
787.93045	0.0564668
788.24969	0.0614543
788.56887	0.0605023
788.88799	0.0634038
789.20706	0.0608776
789.52608	0.0581644
789.84504	0.0580991
790.16395	0.065182
790.4828	0.0697145
790.8016	0.0577223
791.12035	0.05675
791.43904	0.0569015
791.75768	0.0519188
792.07627	0.0512239
792.3948	0.0685271
792.71327	0.0622939
793.03169	0.0621629
793.35006	0.0671908
793.66838	0.0579271
793.98663	0.0502399
794.30484	0.0505893
794.62299	0.0563259
794.94109	0.058676
795.25913	0.0700204
795.57712	0.0679816
795.89506	0.0578139
796.21294	0.0403219
796.53076	0.0666534
796.84853	0.0677016
797.16625	0.0583151
797.48392	0.0631502
797.80153	0.0622075
798.11908	0.0697054
798.43658	0.0677943
798.75403	0.0524419
799.07142	0.0616782
799.38876	0.0592969
799.70605	0.0885384
800.02328	0.0596626
800.34046	0.0692756
800.65758	0.0611132
800.97465	0.0644016
801.29166	0.0486897
801.60862	0.0576115
801.92552	0.0672877
802.24238	0.0861622
802.55917	0.07616
802.87592	0.0680333
803.1926	0.0642168
803.50924	0.0770211
803.82582	0.0469734
804.14234	0.0563923
804.45882	0.0488644
804.77523	0.0400826
805.0916	0.0520332
805.4079	0.0528671
805.72416	0.0613037
806.04036	0.0702015
806.35651	0.0724389
806.6726	0.0586952
806.98863	0.0694001
807.30462	0.0762218
807.62055	0.0702281
807.93642	0.0558703
808.25224	0.0758359
808.56801	0.0872779
808.88372	0.0614649
809.19938	0.0789448
809.51498	0.0650388
809.83053	0.0603297
810.14602	0.048222
810.46146	0.0422581
810.77685	0.0508363
811.09218	0.0803638
811.40746	0.0596207
811.72268	0.0891759
812.03785	0.0743593
812.35296	0.0714042
812.66802	0.0758867
812.98303	0.075749
813.29798	0.0824793
813.61288	0.0607179
813.92772	0.1022656
814.24251	0.0504047
814.55724	0.0882695
814.87192	0.050239
815.18654	0.0315944
815.50112	0.048875
815.81563	0.0506277
816.13009	0.0453311
816.4445	0.0773435
816.75885	0.0846358
817.07315	0.0410869
817.3874	0.0944971
817.70159	0.0656684
818.01572	0.0842134
818.3298	0.0998401
818.64383	0.0505541
818.9578	0.0691203
819.27172	0.0789446
819.58558	0.1059632
819.89939	0.036153
820.21315	0.06673
820.52685	0.0640801
820.84049	0.0605097
821.15408	0.0801955
821.46762	0.0781783
821.7811	0.0675855
822.09453	0.0807373
822.4079	0.0717913
822.72122	0.1028023
823.03448	0.1091188
823.34769	0.0591872
823.66085	0.1045751
823.97395	0.0788998
824.287	0.0975761
824.59999	0.0453089
824.91292	0.1023093
825.22581	0.0637805
825.53864	0.0522295
825.85141	0.0749237
826.16413	0.0990073
826.47679	0.0703032
826.7894	0.0513612
827.10196	0.0742164
827.41446	0.0923515
827.72691	0.0990575
828.0393	0.0377745
828.35164	0.0963183
828.66392	0.0795672
828.97615	0.1140897
829.28832	0.1105065
829.60044	0.0679653
829.91251	0.0240627
830.22452	0.0462263
830.53647	0.0955102
830.84837	0.121786
831.16022	0.1094868
831.47201	0.0854066
831.78375	0.0917611
832.09543	0.1182849
832.40706	0.1243405
832.71863	0.0893051
833.03015	0.0834034
833.34162	0.0456142
833.65303	0.0105434
833.96438	0.060506
834.27568	0.0805787
834.58693	0.1196651
834.89812	0.1162827
835.20926	0.1417964
835.52034	0.0903971
835.83136	0.1416185
836.14234	0.1479156
836.45326	0.1373257
836.76412	0.1513552
837.07493	0.2528886
837.38568	0.1121766
837.69638	0.1908461
838.00703	0.159143
838.31762	0.0969298
838.62815	0.1445453
838.93863	0.0582862
839.24906	0.1101105
839.55943	0.0486221
839.86975	0.0710625
840.18001	0.171738
840.49022	0.0439177
840.80037	0.0560814
841.11047	0.1261453
841.42051	0.0733289
841.7305	0.0643878
842.04043	0.0781557
842.35031	0.1189817
842.66013	0.0680211
842.9699	0.1239308
843.27962	0.0548699
843.58928	0.0862026
843.89888	0.1074862
844.20844	0.1616894
844.51793	0.1010111
844.82737	0.1108483
845.13676	0.1892114
845.44609	0.1176272
845.75537	0.1002236
846.06459	0.1186995
846.37376	0.1996292
846.68287	0.0857172
846.99193	0.0893892
847.30093	0.0484397
847.60988	0.1161671
847.91877	0.1377987
848.22761	0.1436151
848.53639	0.1000891
848.84512	0.0716244
849.1538	0.0962679
849.46242	0.0697588
849.77098	0.2090361
850.07949	0.0499577
850.38795	0.1178013
850.69635	0.2265655
851.00469	0.1521264
851.31298	0.2514294
851.62122	0.0648202
851.9294	0.1532458
852.23752	0.0919935
852.5456	0.0680019
852.85361	0.0849512
853.16157	0.089415
853.46948	0.1308792
853.77733	0.2220269
854.08513	0.1228529
854.39287	0.2096273
854.70056	0.2359557
855.00819	0.1524439
855.31577	0.1447427
855.62329	0.272899
855.93076	0.0256853
856.23817	0.2091721
856.54553	-0.0419922
856.85283	0.1039995
857.16008	0.2587731
857.46727	0.1856416
857.77441	0.2234404
858.08149	0.2386905
858.38852	-0.026559
858.69549	0.2186017
859.00241	0.1028763
859.30927	0.2510954
859.61608	0.1314189
859.92284	-0.0596191
860.22954	0.1135139
860.53618	0.0701372
860.84277	0.2225406
861.1493	0.1228175
861.45578	0.0710818
861.7622	0.1172164
862.06857	0.2516921
862.37489	-0.009247
862.68115	0.2344175
862.98735	0.3905916
863.2935	0.1935688
863.59959	0.058251
863.90563	0.1724129
864.21161	0.1311844
864.51754	0.1688639
864.82342	0.0169059
865.12924	0.0810187
865.435	0.1284301
865.74071	0.2843691
866.04636	0.1663257
866.35196	0.1827822
866.65751	0.2012463
866.96299	0.1140161
867.26843	0.1591818
867.57381	0.3971208
867.87913	0.0885765
868.1844	0.1448722
868.48961	0.0141205
868.79477	0.1247713
869.09987	0.1290947
869.40492	0.3223924
869.70992	0.0660749
870.01485	0.2109793
870.31974	0.119391
870.62457	0.1160655
870.92934	0.1014148
871.23406	0.1455704
871.53872	0.1096575
871.84333	0.3073103
872.14788	0.3964731
872.45238	0.0769598
872.75682	0.1215597
873.06121	0.267312
873.36554	0.2167138
873.66982	-0.0767688
873.97404	0.0693562
874.2782	0.4316321
874.58232	0.2203065
874.88637	0.2292243
875.19037	0.2227718
875.49432	0.1262964
875.79821	0.6649137
876.10205	0.4301564
876.40583	0.1139794
876.70955	0.2515533
877.01322	0.0679445
877.31684	0.11418
877.6204	0.0135666
877.9239	0.0733873
878.22735	0.1324059
878.53075	0.3583977
878.83409	0.1147272
879.13737	0.2328553
879.4406	0.3376636
879.74377	0.1724134
880.04689	0.1474435
880.34996	0.2812126
880.65296	0.0184587
880.95592	0.1312545
881.25882	0.3379347
881.56166	0.5495888
881.86445	0.1713706
882.16718	0.3137613
882.46985	0.2251016
882.77248	0.1492906
883.07504	0.2012545
883.37755	0.1517066
883.68001	0.3039
883.98241	0.0427362
884.28475	-0.0996652
884.58704	0.1381876
884.88928	0.3470997
885.19146	0.1589303
885.49358	0.0743984
885.79565	0.4791459
886.09767	-0.0683361
886.39962	0.3556105
886.70153	0.0972096
887.00338	0.1972161
887.30517	0.1713736
887.60691	0.4210774
887.90859	0.3381272
888.21021	0.2255328
888.51179	0.2716676
888.8133	0.3686976
889.11476	0.2041548
889.41617	0.5202761
889.71752	0.1274301
890.01881	0.3206458
890.32005	0.0864612
890.62124	0.0281879
890.92236	0.4541457
891.22344	0.4053145
891.52446	0.2847692
891.82542	0.4794499
892.12633	0.1524296
892.42718	0.0546015
892.72797	-0.2117919
893.02871	0.1104723
893.3294	0.1098363
893.63003	0.322909
893.93061	0.1728713
894.23113	0.3860226
894.53159	0.220533
894.832	-0.2455749
895.13235	0.1851601
895.43265	-0.0328676
895.73289	0.6115151
896.03308	0.0855522
896.33321	0.2459572
896.63329	0.3924572
896.93331	0.1029357
897.23327	0.2700491
897.53318	0.0734661
897.83304	-0.1303393
898.13284	0.0182967
898.43258	0.2671139
898.73227	0.372831
899.0319	0.0978815
899.33148	0.0385912
899.631	-0.0778904
899.93047	0.7215809
900.22988	0.1819188
900.52924	0.1187165
900.82854	-0.4468632
901.12778	0.0786705
901.42697	-0
901.7261	0.1015305
902.02518	-0.1112118
902.3242	0.5131443
902.62317	0.0188054
902.92208	0.176871
903.22094	0.0206313
903.51974	0.3045094
903.81848	0.5096505
904.11717	-0
904.41581	-0.1427307
904.71439	-0
905.01291	0.139009
905.31138	-0.1908615
905.60979	1.0793503
905.90815	-0
906.20645	0.5487547
906.50469	0.4647946
906.80288	0.1605675
907.10102	0.1564418
907.3991	0.2094885
907.69712	-0
907.99509	0.0398871
908.293	-0
908.59085	0.5458277
908.88865	-0
909.1864	0.3197288
909.48409	0.3671494
909.78172	0.4972068
910.0793	0.2405859
910.37683	0.8367114
910.67429	0.6142497
910.9717	0.2426345
911.26906	0.8156277
911.56636	0.2341779
911.86361	0.3224197
912.16079	0.0417333
912.45793	-0
912.75501	0.3870996
913.05203	0.1027235
913.34899	0.5038814
913.64591	0.3363727
913.94276	0.2335649
914.23956	0.3808762
914.5363	-0.0230206
914.83299	0.4515479
915.12963	0.2824695
915.4262	0.5405082
915.72272	-0.0890574
916.01919	0.2980264
916.3156	0.4149425
916.61195	-0
916.90825	0.4012301
917.2045	0.3985335
917.50068	0.541573
917.79681	0.5663332
918.09289	0.9301808
918.38891	0.0322925
918.68488	0.1309168
918.98078	0.1171134
919.27664	-0
919.57243	0.4473057
919.86818	-0.0230235
920.16386	-0
920.45949	1.6218369
920.75507	0.0971428
921.05059	-0.1935384
921.34605	-0.1102965
921.64146	-0.0622754
921.93681	0.1872455
922.2321	0.0889168
922.52734	0.225394
922.82253	0.3921894
923.11765	0.0759711
923.41273	-0.0575367
923.70774	-0.0178773
924.0027	-0
924.29761	0.1433181
924.59246	-0.0709771
924.88725	0.1584346
925.18199	0.8354792
925.47667	0.2222519
925.7713	0.0379933
926.06587	-0.2026459
926.36038	1.0794684
926.65484	0.2711127
926.94925	0.1591335
927.24359	0.503404
927.53788	-0.1266767
927.83212	-0.1129817
928.1263	0.3011516
928.42042	-0.3702488
928.71449	-0
929.0085	0.3353506
929.30246	-0.0003257
929.59636	0.0374027
929.8902	0.3318439
930.18399	0.4126581
930.47773	0.4192795
930.7714	0.4472929
931.06502	0.0415253
931.35859	0.4224689
931.6521	0.5454484
931.94555	-0
932.23895	0.6704879
932.53229	-0
932.82558	-0.0339512
933.11881	0.3484858
933.41198	-0.097487
933.7051	0.7488925
933.99816	0.0861321
934.29117	0.0066527
934.58412	-0
934.87701	0.1030351
935.16985	0.3949919
935.46263	0.3186917
935.75536	0.1640566
936.04803	0.2889353
936.34065	0.2859746
936.6332	0.2691699
936.92571	0.2189686
937.21815	0.4467687
937.51054	0.7220129
937.80288	-0.3034608
938.09516	1.0753257
938.38738	0.1631509
938.67955	0.2615423
938.97166	-0
939.26371	0.3261407
939.55571	0.0092843
939.84766	0.4758927
940.13954	0.1479397
940.43137	-0
940.72315	-0
941.01487	0.6055608
941.30653	0.0884509
941.59814	-0
941.88969	0.7981974
942.18118	0.3539749
942.47262	0.1502684
942.76401	0.0669468
943.05533	0.098167
943.3466	0.3351759
943.63782	-0.0253241
943.92898	0.1799968
944.22008	-0.2593688
944.51113	0.4798867
944.80212	0.2559747
945.09305	0.434491
945.38393	0.1320081
945.67475	0.718442
945.96552	0.153655
946.25623	-0
946.54688	0.2547323
946.83748	-0
947.12802	-0
947.41851	-0
947.70894	0.0933384
947.99931	0.318306
948.28963	-0.1039542
948.57989	0.4806066
948.8701	0.3298453
949.16024	-0
949.45034	0.3649994
949.74037	0.3063239
950.03036	0.3203601
950.32028	0.6428069
950.61015	0.9840077
950.89996	0.41192
951.18972	0.2908624
951.47942	1.4405458
951.76906	1.2723574
952.05865	-0
952.34818	0.5690867
952.63766	0.1143339
952.92708	-0
953.21644	0.8842809
953.50575	0.1428461
953.795	0.4063615
954.08419	0.2837751
954.37333	0.3012391
954.66241	0.602201
954.95144	0.9099272
955.24041	0.1216317
955.52932	0.0578764
955.81818	0.6251013
956.10698	0.3402951
956.39572	0.2558216
956.68441	0.8464848
956.97305	-0.0267026
957.26162	-0.0299137
957.55014	-0.2487416
957.83861	0.9386107
958.12701	-0.4558604
958.41536	0.2478276
958.70366	0.7008541
958.9919	0.0918851
959.28008	-0.0214039
959.56821	0.4402499
959.85628	0.5809433
960.14429	0.0678872
960.43225	-0
960.72015	0.3603298
961.00799	0.3966319
961.29578	0.2061218
961.58352	0.0540473
961.87119	0.1025237
962.15881	-0
962.44637	1.7991591
962.73388	-0.0074813
963.02133	-0.192029
963.30873	0.3680405
963.59607	-0
963.88335	0.5158528
964.17057	-0
964.45774	1.6887164
964.74485	0.1852588
965.03191	0.018738
965.31891	-0.0194568
965.60586	-0
965.89274	0.7352382
966.17957	0.4228046
966.46635	-0
966.75307	-0.1705155
967.03973	-0.0111254
967.32634	-0
967.61289	-0
967.89938	1.1057848
968.18581	2.079543
968.4722	-0
968.75852	0.6642189
969.04479	-0
969.331	-0
969.61715	-0
969.90325	0.0301029
970.18929	-0
970.47528	0.553883
970.76121	0.2437134
971.04708	-0
971.3329	0.2313264
971.61866	-0
971.90436	0.6208346
972.19001	0.760011
972.4756	0.0041401
972.76113	-0.2084564
973.04661	-0.3793459
973.33203	-0.4010211
973.61739	0.0565349
973.9027	-0.0299829
974.18795	0.0598742
974.47315	0.3067277
974.75829	0.3925617
975.04337	0.1518959
975.3284	0.5292189
975.61337	-0.0223196
975.89828	0.0959545
976.18314	0.0018166
976.46794	0.2303489
976.75268	-0
977.03737	-0
977.322	-0
977.60657	0.9306242
977.89109	0.2721938
978.17555	-0
978.45995	0.8147154
978.7443	-1.4071339
979.02859	-0
979.31283	-0
979.59701	0.1344612
979.88113	0.0845808
980.16519	0.0990152
980.4492	0.0628927
980.73315	-0
981.01705	0.4762807
981.30089	0.0901913
981.58467	-0.5060108
981.8684	0.0557114
982.15207	-1.3594818
982.43568	-0.4171439
982.71923	0.3627878
983.00273	-0.5369137
983.28618	0.5291859
983.56956	-0
983.85289	-0.5752476
984.13617	-0.4094895
984.41938	-0.2885985
984.70254	-0.1805419
984.98565	0.0063482
985.26869	-0.6984368
985.55168	-0
985.83462	-0
986.11749	-0
986.40031	0.3158668
986.68308	0.6308724
986.96578	-0.1078068
987.24844	-0
987.53103	0.1314048
987.81357	-0
988.09605	-0.7843007
988.37847	-0.0532898
988.66084	-0
988.94315	0.251477
989.2254	-0
989.5076	-0
989.78974	-0.0933059
990.07182	-0
990.35385	0.4432742
990.63582	0.1485951
990.91773	0.3443026
991.19959	-0
991.48139	-0
991.76313	0.6346212
992.04482	-1.0447913
992.32645	-0.3472137
992.60802	-0
992.88954	-0
993.171	-0
993.4524	-0.0506354
993.73375	-0
994.01504	0.2712188
994.29627	0.2496171
994.57745	1.2566109
994.85857	0.397055
995.13963	-0
995.42064	-0
995.70159	0.0063911
995.98248	0.0293627
996.26332	0.2632414
996.5441	-0
996.82482	0.7342928
997.10548	-0.0482516
997.38609	0.310707
997.66664	0.2039672
997.94714	-0
998.22758	-0
998.50796	1.0871697
998.78828	0.2144363
999.06855	0.3709608
999.34876	-0
999.62892	0.2697339
999.90901	1.524427
1000.18905	0.3941192
1000.46904	-0.281918
1000.74897	0.6822027
1001.02884	0.5737445
1001.30865	-0.2559265
1001.58841	-0.4552794
1001.8681	0.1626992
1002.14775	0.7181091
1002.42733	0.5566244
1002.70686	0.0496619
1002.98633	-0
1003.26575	-0
1003.54511	0.0870683
1003.82441	0.0875482
1004.10365	0.1633557
1004.38284	0.0947808
1004.66197	-0
1004.94105	-0.210717
1005.22006	-0
1005.49902	-0
1005.77793	-0
1006.05677	-0
1006.33556	-0.3056136
1006.6143	0.4286684
1006.89297	-0
1007.17159	0.2006774
1007.45015	0.0028787
1007.72866	-0.3915483
1008.00711	0.2269554
1008.2855	0.1935288
1008.56383	0.4713055
1008.84211	-0
1009.12033	-0
1009.39849	-0.0259733
1009.6766	-0.5102627
1009.95465	0.3072539
1010.23264	-0.4971753
1010.51058	-0.0786535
1010.78845	0.3126242
1011.06628	-0
1011.34404	0.6230292
1011.62175	0.4210291
1011.8994	-0.0268721
1012.17699	-0.486203
1012.45453	-0
1012.73201	-0
1013.00943	-0
1013.2868	-0
1013.5641	-0
1013.84136	0.4059599
1014.11855	0.1703006
1014.39569	0.5196158
1014.67277	1.7419854
1014.94979	0.017988
1015.22676	0.7769565
1015.50367	0.2387289
1015.78052	0.7517671
1016.05731	1.0796019
1016.33405	-0
1016.61073	-0.0615898
1016.88736	-0
1017.16392	0.4503431
1017.44043	0.1926536
1017.71689	0.4668727
1017.99328	0.652288
1018.26962	0.4191845
1018.5459	0.4191845
1018.82213	0.4191845
