Mock Spectral File for Testing


>>>>>Begin Spectral Data<<<<<
339.45932	-2.2718416
339.84412	-2.2718416
340.22887	-2.2718416
340.61357	-0
340.99822	-0
341.38282	-0
341.76738	0.1386467
342.15188	0.232041
342.53634	-0
342.92074	-0.2935171
343.3051	-0.5325647
343.68941	-0.1794449
344.07367	-0.0569149
344.45788	0.9504262
344.84204	0.8376261
345.22615	0.0298488
345.61021	-0
345.99423	0.0952153
346.37819	0.5071492
346.76211	-0
347.14597	-0.0388492
347.52979	-0
347.91356	-0.2347655
348.29728	0.3343862
348.68095	0.0264721
349.06457	0.0502626
349.44814	0.0755894
349.83166	0.094454
350.21514	0.1615009
350.59856	0.0402936
350.98193	0.0926805
351.36526	0.092113
351.74854	0.0335309
352.13176	-0.0104732
352.51494	0.0427911
352.89807	0.156807
353.28115	-0.0023769
353.66418	0.081794
354.04716	0.0412052
354.4301	0.0515896
354.81298	0.0576594
355.19581	0.0205544
355.5786	-0.0171834
355.96133	0.0772979
356.34402	0.0278365
356.72666	0.1059714
357.10924	-0.0162358
357.49178	0.1797613
357.87427	0.1347695
358.25671	0.1903072
358.6391	-0.0430135
359.02144	0.0217043
359.40374	0.1495822
359.78598	0.143981
360.16817	0.0153268
360.55032	0.0878361
360.93241	-0.0436938
361.31446	0.0324046
361.69646	0.1036941
362.0784	0.1501213
362.4603	-0.0019679
362.84215	0.0176074
363.22395	0.1764933
363.6057	0.0507634
363.9874	0.1379764
364.36905	0.0945484
364.75066	0.0606533
365.13221	0.027501
365.51371	0.1350842
365.89517	0.0562848
366.27657	0.0153027
366.65793	0.0198007
367.03924	0.0955169
367.42049	0.1200469
367.8017	0.0824242
368.18286	0.0706688
368.56397	0.1123891
368.94503	0.0091012
369.32604	0.0493241
369.707	0.0587556
370.08792	0.1073625
370.46878	0.0377636
370.84959	0.0823718
371.23035	0.1046206
371.61107	-0.0289382
371.99173	0.0662895
372.37235	0.0975124
372.75292	0.0332925
373.13343	0.0748436
373.5139	0.1483712
373.89432	0.0208778
374.27469	0.0768246
374.65501	0.0908357
375.03528	0.1318469
375.4155	0.0895851
375.79567	0.0307294
376.17579	0.1861396
376.55586	0.1516374
376.93589	0.0958596
377.31586	0.0827007
377.69578	0.1394002
378.07566	0.0794236
378.45548	0.0432962
378.83526	0.1122973
379.21499	0.0585632
379.59466	0.172291
379.97429	0.1565087
380.35387	0.0753942
380.7334	-0.0404837
381.11288	0.0917918
381.49231	0.0277212
381.87169	-0.036818
382.25102	0.082454
382.6303	0.0714421
383.00953	0.1328071
383.38871	0.1072367
383.76784	-0.0912002
384.14693	0.1020451
384.52596	0.1845067
384.90494	0.0648661
385.28388	0.1328378
385.66276	0.0807659
386.0416	0.1109357
386.42039	-0.0171714
386.79912	0.1987624
387.17781	0.0674597
387.55645	0.0617028
387.93503	0.1873317
388.31357	0.0467047
388.69206	-0.036491
389.0705	0.0341068
389.44889	0.0710284
389.82723	0.0422271
390.20552	-0.0215586
390.58376	0.162606
390.96195	0.1637689
391.3401	0.1162989
391.71819	0.1105228
392.09623	0.0826207
392.47422	0.1297647
392.85217	0.0150277
393.23006	0.0726483
393.60791	0.0281311
393.9857	0.1394569
394.36345	0.0803117
394.74114	0.0798864
395.11879	0.1021163
395.49638	0.1112018
395.87393	0.0358824
396.25143	-0.0058256
396.62887	0.0147136
397.00627	0.1439715
397.38362	0.1223616
397.76092	0.0580205
398.13817	0.095961
398.51537	0.0903429
398.89252	0.1045195
399.26962	0.043455
399.64667	0.0410016
400.02367	0.0647782
400.40062	0.1765859
400.77752	0.1359462
401.15437	0.1188621
401.53117	0.1095481
401.90792	0.0736991
402.28463	0.0860448
402.66128	0.0531694
403.03788	0.0623868
403.41444	0.0069392
403.79094	0.100144
404.16739	0.0367417
404.5438	0.0198586
404.92015	0.0595376
405.29646	0.0381714
405.67271	0.0917871
406.04892	0.0822294
406.42507	0.0712121
406.80118	0.0762023
407.17724	0.0872455
407.55324	0.0593779
407.9292	0.0425492
408.30511	0.0561938
408.68096	0.045394
409.05677	0.075793
409.43253	0.0036744
409.80824	0.015445
410.18389	0.0863492
410.5595	0.0123562
410.93506	-0.0069723
411.31057	0.0939057
411.68603	0.02202
412.06144	0.084412
412.4368	0.0932164
412.81211	0.0619793
413.18737	0.0765564
413.56258	0.0567916
413.93774	0.0984247
414.31285	0.1264363
414.68791	0.0646016
415.06292	0.0950567
415.43788	0.1002915
415.81279	0.0829865
416.18765	0.0931093
416.56246	0.0692406
416.93723	0.073143
417.31194	0.0786828
417.6866	0.0482486
418.06121	0.0896519
418.43577	0.0730514
418.81029	0.1173569
419.18475	0.0726662
419.55916	0.078131
419.93352	0.0668266
420.30784	0.0777719
420.6821	0.0905616
421.05631	0.0612171
421.43048	0.069699
421.80459	0.0586999
422.17865	0.0706918
422.55267	0.0829681
422.92663	0.064879
423.30054	0.0644903
423.67441	0.0672069
424.04822	0.0719143
424.42199	0.0688939
424.7957	0.0546114
425.16936	0.0609357
425.54298	0.061055
425.91654	0.0727438
426.29006	0.0620613
426.66352	0.061311
427.03693	0.0570882
427.4103	0.0583921
427.78361	0.0541163
428.15688	0.0567619
428.53009	0.0565771
428.90326	0.0545619
429.27637	0.0527504
429.64944	0.0595934
430.02245	0.0588875
430.39542	0.0544211
430.76833	0.0608066
431.1412	0.0605763
431.51401	0.0606075
431.88677	0.053981
432.25949	0.055774
432.63215	0.052436
433.00477	0.0534343
433.37733	0.0565539
433.74985	0.0528852
434.12231	0.0521501
434.49473	0.0568903
434.86709	0.0534149
435.23941	0.054267
435.61167	0.0521521
435.98389	0.0532706
436.35605	0.0505185
436.72816	0.0494116
437.10023	0.0529254
437.47224	0.0487772
437.84421	0.0521058
438.21612	0.0510211
438.58798	0.0518922
438.9598	0.0513288
439.33156	0.0483914
439.70328	0.0491913
440.07494	0.0497713
440.44655	0.0516157
440.81812	0.0503404
441.18963	0.0523962
441.56109	0.0503061
441.93251	0.0478671
442.30387	0.0506065
442.67518	0.0507396
443.04645	0.0478519
443.41766	0.0511145
443.78882	0.0496494
444.15993	0.0515626
444.531	0.0514495
444.90201	0.0494323
445.27297	0.0487702
445.64388	0.0495511
446.01475	0.0487415
446.38556	0.0481729
446.75632	0.0503467
447.12703	0.0498962
447.49769	0.0485147
447.8683	0.0483136
448.23886	0.0486216
448.60937	0.0477308
448.97983	0.0482001
449.35024	0.0482017
449.7206	0.0488393
450.09091	0.0492633
450.46117	0.0490687
450.83138	0.0485347
451.20154	0.0486593
451.57165	0.0476197
451.94171	0.0482405
452.31172	0.0476044
452.68168	0.0477202
453.05159	0.0470847
453.42144	0.0477837
453.79125	0.046585
454.16101	0.0487203
454.53072	0.0475729
454.90037	0.0474078
455.26998	0.0473777
455.63954	0.0470672
456.00904	0.0479079
456.3785	0.0492533
456.74791	0.0487908
457.11726	0.0495767
457.48657	0.0497023
457.85582	0.0493886
458.22503	0.0515108
458.59418	0.0498564
458.96329	0.0502572
459.33234	0.0500321
459.70134	0.0497464
460.0703	0.0498132
460.4392	0.0505513
460.80805	0.0514441
461.17685	0.0510501
461.54561	0.0496061
461.91431	0.0504019
462.28296	0.0507744
462.65156	0.0492917
463.02011	0.0510632
463.38861	0.0511473
463.75706	0.0496891
464.12546	0.0502619
464.49381	0.0494969
464.86211	0.0499672
465.23036	0.0501985
465.59856	0.0494384
465.96671	0.0498758
466.3348	0.0496048
466.70285	0.0496939
467.07085	0.0492766
467.43879	0.050897
467.80669	0.0497129
468.17454	0.0498831
468.54233	0.0493558
468.91008	0.0479135
469.27777	0.0489578
469.64541	0.0497954
470.01301	0.0490356
470.38055	0.0494725
470.74804	0.0502371
471.11549	0.0496878
471.48288	0.0504651
471.85022	0.0499303
472.21751	0.0494859
472.58475	0.0492486
472.95194	0.0506377
473.31908	0.0494985
473.68617	0.0491434
474.05321	0.0484019
474.4202	0.0496757
474.78714	0.0504515
475.15403	0.049336
475.52086	0.0500657
475.88765	0.0497507
476.25439	0.0485624
476.62107	0.0485713
476.98771	0.050444
477.35429	0.0490609
477.72083	0.0488733
478.08731	0.0502825
478.45374	0.048479
478.82013	0.0487358
479.18646	0.0493547
479.55274	0.0477916
479.91897	0.0486692
480.28515	0.0483519
480.65128	0.0479902
481.01736	0.048467
481.38339	0.0487078
481.74937	0.0478662
482.1153	0.0491228
482.48118	0.047922
482.84701	0.0483675
483.21278	0.0476185
483.57851	0.047026
483.94418	0.0476081
484.30981	0.0473699
484.67538	0.047704
485.04091	0.046948
485.40638	0.0460961
485.7718	0.0479387
486.13718	0.0477982
486.5025	0.0479973
486.86777	0.0483007
487.23299	0.0472414
487.59816	0.0482032
487.96328	0.0481659
488.32835	0.0475195
488.69336	0.0462454
489.05833	0.0458629
489.42325	0.0466535
489.78811	0.0464053
490.15293	0.0461024
490.51769	0.0448776
490.88241	0.0459543
491.24707	0.0466334
491.61168	0.0461456
491.97625	0.0458893
492.34076	0.047443
492.70522	0.0464588
493.06963	0.0472782
493.43399	0.0472555
493.7983	0.0476748
494.16256	0.0480057
494.52677	0.0479802
494.89092	0.0475216
495.25503	0.0472285
495.61908	0.0474559
495.98309	0.0471331
496.34704	0.0474239
496.71095	0.0475302
497.0748	0.0469856
497.4386	0.0474906
497.80235	0.0471418
498.16606	0.0471767
498.52971	0.0475788
498.89331	0.0470065
499.25685	0.0469521
499.62035	0.0472401
499.9838	0.0478091
500.3472	0.0462575
500.71054	0.0461228
501.07384	0.0472211
501.43708	0.0459717
501.80027	0.0462581
502.16342	0.0470331
502.52651	0.0465226
502.88955	0.0467133
503.25254	0.0472749
503.61548	0.0465157
503.97837	0.0472472
504.34121	0.0480638
504.704	0.0473935
505.06673	0.0466715
505.42942	0.0461837
505.79205	0.0467571
506.15464	0.0464432
506.51717	0.0455931
506.87965	0.0469337
507.24209	0.0472045
507.60447	0.0466495
507.9668	0.0468975
508.32908	0.0461876
508.69131	0.0470243
509.05348	0.0465829
509.41561	0.0472131
509.77769	0.0464671
510.13971	0.0463584
510.50169	0.046081
510.86361	0.0460773
511.22548	0.0463613
511.58731	0.0464173
511.94908	0.0463629
512.3108	0.0457202
512.67247	0.0467792
513.03409	0.0465169
513.39565	0.0463509
513.75717	0.0466913
514.11864	0.046515
514.48005	0.0468554
514.84141	0.0467683
515.20273	0.0463988
515.56399	0.0463458
515.9252	0.0464369
516.28636	0.0459341
516.64747	0.0465284
517.00853	0.0465548
517.36954	0.0462249
517.7305	0.0464145
518.0914	0.0468969
518.45226	0.0465674
518.81306	0.0462862
519.17381	0.0461929
519.53452	0.0470825
519.89517	0.0470812
520.25577	0.0462958
520.61632	0.0466748
520.97682	0.0467907
521.33726	0.0466373
521.69766	0.0473664
522.05801	0.0457515
522.4183	0.047417
522.77854	0.0465589
523.13874	0.046781
523.49888	0.0470359
523.85897	0.0468269
524.21901	0.0461025
524.579	0.0465705
524.93893	0.046669
525.29882	0.0469568
525.65866	0.0460814
526.01844	0.0465421
526.37818	0.0462635
526.73786	0.0460243
527.09749	0.0461753
527.45707	0.0463214
527.8166	0.046469
528.17608	0.0459769
528.53551	0.0459788
528.89488	0.0454919
529.25421	0.046069
529.61348	0.0457304
529.97271	0.0462255
530.33188	0.046398
530.691	0.045927
531.05007	0.0458616
531.40909	0.0461042
531.76806	0.0460557
532.12697	0.0460012
532.48584	0.0456424
532.84465	0.0462169
533.20342	0.0456784
533.56213	0.0458899
533.92079	0.0460262
534.2794	0.0456074
534.63796	0.0460693
534.99647	0.0463568
535.35493	0.0461539
535.71333	0.0455435
536.07169	0.0460644
536.42999	0.0460678
536.78824	0.0464959
537.14645	0.0455244
537.5046	0.0458928
537.86269	0.0460651
538.22074	0.0457533
538.57874	0.0453846
538.93669	0.0459639
539.29458	0.0459833
539.65242	0.0454699
540.01022	0.0461317
540.36796	0.0462238
540.72565	0.0459645
541.08329	0.0463849
541.44087	0.0466568
541.79841	0.0457281
542.1559	0.0459288
542.51333	0.0455787
542.87071	0.0457932
543.22804	0.0456773
543.58532	0.0463292
543.94255	0.0457299
544.29973	0.0462028
544.65686	0.0459733
545.01393	0.0458358
545.37096	0.0461823
545.72793	0.0464699
546.08485	0.0461657
546.44172	0.046362
546.79854	0.0466072
547.15531	0.0457963
547.51203	0.0466136
547.86869	0.0455995
548.22531	0.0454794
548.58187	0.0462172
548.93838	0.0456777
549.29484	0.0458328
549.65125	0.0455423
550.00761	0.0457028
550.36392	0.0462658
550.72017	0.045838
551.07638	0.0456093
551.43253	0.0454493
551.78863	0.0449711
552.14468	0.0453497
552.50068	0.0455118
552.85663	0.0457082
553.21253	0.0456373
553.56837	0.0459334
553.92417	0.0449796
554.27991	0.0449
554.6356	0.0446735
554.99124	0.0450784
555.34683	0.0448996
555.70237	0.04468
556.05785	0.0452319
556.41329	0.0456983
556.76867	0.0456909
557.124	0.0450213
557.47928	0.0453681
557.83451	0.0449772
558.18969	0.0452046
558.54482	0.045597
558.89989	0.0450074
559.25491	0.0444327
559.60989	0.0452157
559.96481	0.0452456
560.31968	0.0451946
560.67449	0.0457199
561.02926	0.0451727
561.38398	0.0454308
561.73864	0.0457143
562.09325	0.045783
562.44781	0.045605
562.80232	0.0456471
563.15678	0.045862
563.51119	0.0450593
563.86554	0.0454622
564.21985	0.0458268
564.5741	0.045138
564.9283	0.0453461
565.28245	0.0447936
565.63655	0.0446557
565.9906	0.0455611
566.34459	0.045594
566.69854	0.045551
567.05243	0.0457943
567.40627	0.0452216
567.76006	0.0458345
568.1138	0.0457146
568.46748	0.0453203
568.82112	0.0450733
569.1747	0.0455295
569.52823	0.0458735
569.88172	0.0456835
570.23514	0.0459971
570.58852	0.0457556
570.94185	0.0451321
571.29512	0.0464021
571.64835	0.0459785
572.00152	0.0452387
572.35464	0.0457055
572.70771	0.0452651
573.06072	0.0455627
573.41369	0.0457201
573.7666	0.0458887
574.11947	0.0456775
574.47228	0.0459605
574.82504	0.0455955
575.17774	0.0455287
575.5304	0.0457548
575.883	0.0457669
576.23556	0.0457186
576.58806	0.0456497
576.94051	0.0459149
577.29291	0.045791
577.64525	0.044653
577.99755	0.0456814
578.34979	0.0459222
578.70198	0.0451915
579.05412	0.0450678
579.40621	0.0451437
579.75825	0.044891
580.11024	0.0450987
580.46217	0.0445221
580.81405	0.0453049
581.16588	0.0454888
581.51766	0.0453071
581.86939	0.0453723
582.22107	0.0452973
582.57269	0.0450169
582.92426	0.0450337
583.27578	0.0450014
583.62725	0.0452358
583.97867	0.0448659
584.33004	0.0454842
584.68135	0.0449064
585.03261	0.0446093
585.38383	0.0450693
585.73498	0.0451372
586.08609	0.0448143
586.43715	0.0451298
586.78815	0.0448409
587.13911	0.0438705
587.49001	0.0447521
587.84086	0.0441484
588.19165	0.0441108
588.5424	0.0453116
588.89309	0.0449321
589.24374	0.0441536
589.59433	0.043764
589.94487	0.0446318
590.29535	0.0443019
590.64579	0.0444895
590.99617	0.0438347
591.3465	0.0446901
591.69679	0.0445284
592.04701	0.0444414
592.39719	0.0436491
592.74732	0.0441666
593.09739	0.0439655
593.44741	0.0438486
593.79738	0.0435074
594.1473	0.0437832
594.49717	0.0431776
594.84698	0.0433967
595.19674	0.0436318
595.54645	0.0435888
595.89611	0.0434454
596.24572	0.0438114
596.59528	0.0440547
596.94478	0.0431486
597.29423	0.0435832
597.64363	0.0439401
597.99298	0.0433953
598.34228	0.0432238
598.69152	0.0434732
599.04072	0.0440396
599.38986	0.0433978
599.73895	0.0437746
600.08798	0.0437
600.43697	0.0433373
600.7859	0.0437069
601.13479	0.0435054
601.48362	0.0435951
601.83239	0.0434318
602.18112	0.043237
602.5298	0.0434085
602.87842	0.0427945
603.22699	0.0428103
603.57551	0.0422734
603.92397	0.0429687
604.27239	0.0423731
604.62075	0.0413324
604.96907	0.0419283
605.31732	0.0418725
605.66553	0.0422415
606.01369	0.0410915
606.36179	0.0409196
606.70984	0.0413691
607.05784	0.0413206
607.40579	0.0412051
607.75369	0.041645
608.10153	0.0413707
608.44933	0.0414144
608.79707	0.0411088
609.14475	0.0407817
609.49239	0.0406878
609.83998	0.0403889
610.18751	0.040053
610.53499	0.0400539
610.88242	0.0399318
611.2298	0.039724
611.57712	0.0394435
611.92439	0.0393147
612.27161	0.0396562
612.61878	0.0386321
612.9659	0.0388364
613.31297	0.0386191
613.65998	0.0391092
614.00694	0.0383674
614.35385	0.0377956
614.70071	0.0381519
615.04751	0.037778
615.39426	0.0378842
615.74097	0.0378926
616.08761	0.0382009
616.43421	0.0371006
616.78076	0.0369492
617.12725	0.0376194
617.47369	0.0373609
617.82008	0.0371144
618.16642	0.0371875
618.5127	0.0366064
618.85893	0.0362629
619.20512	0.0362479
619.55124	0.0366754
619.89732	0.0363803
620.24335	0.0358631
620.58932	0.0354604
620.93524	0.0357551
621.28111	0.0353606
621.62692	0.0360836
621.97269	0.0354526
622.3184	0.0351761
622.66406	0.0353064
623.00967	0.0354788
623.35522	0.0349262
623.70073	0.0351654
624.04618	0.0348999
624.39158	0.0351103
624.73693	0.0347631
625.08222	0.0355484
625.42747	0.0349441
625.77266	0.0353399
626.1178	0.0350827
626.46288	0.034701
626.80792	0.0348497
627.1529	0.0342797
627.49783	0.0350763
627.84271	0.0345126
628.18754	0.0347808
628.53231	0.034424
628.87703	0.0342533
629.2217	0.0350871
629.56632	0.0348001
629.91088	0.0350904
630.2554	0.0347028
630.59986	0.0344158
630.94427	0.0351181
631.28862	0.0346718
631.63293	0.0345526
631.97718	0.0346814
632.32138	0.0347768
632.66553	0.0347397
633.00963	0.0347293
633.35367	0.0348873
633.69766	0.0350179
634.0416	0.0346419
634.38549	0.0351928
634.72932	0.0353638
635.0731	0.0357571
635.41683	0.0357365
635.76051	0.0354295
636.10414	0.0354724
636.44771	0.0362883
636.79123	0.0356367
637.1347	0.0362946
637.47812	0.0365692
637.82148	0.0369195
638.16479	0.0369461
638.50805	0.0366706
638.85126	0.0365318
639.19442	0.0364539
639.53752	0.0366904
639.88057	0.0372855
640.22357	0.037663
640.56652	0.0377327
640.90941	0.0376004
641.25225	0.0375114
641.59504	0.0378846
641.93778	0.0382372
642.28046	0.0377412
642.6231	0.0387412
642.96568	0.0386388
643.3082	0.038628
643.65068	0.0388044
643.9931	0.0392936
644.33547	0.0389392
644.67779	0.0391723
645.02006	0.039617
645.36227	0.0387893
645.70443	0.0393245
646.04654	0.0393717
646.3886	0.0397672
646.7306	0.0397906
647.07255	0.039861
647.41445	0.0402428
647.7563	0.0406372
648.0981	0.0393689
648.43984	0.039818
648.78153	0.0403704
649.12317	0.0404235
649.46475	0.040539
649.80628	0.0407198
650.14777	0.040934
650.48919	0.0410086
650.83057	0.0405653
651.17189	0.0413658
651.51316	0.0417441
651.85438	0.0417472
652.19555	0.0423183
652.53666	0.0416374
652.87772	0.0419878
653.21873	0.0418961
653.55969	0.0425662
653.90059	0.0419062
654.24144	0.0415632
654.58224	0.0422813
654.92299	0.0415463
655.26368	0.0419017
655.60432	0.0417698
655.94491	0.0420717
656.28545	0.0422951
656.62593	0.0425422
656.96637	0.0422499
657.30675	0.0424779
657.64707	0.0427488
657.98735	0.0426662
658.32757	0.0423789
658.66774	0.0425969
659.00785	0.042611
659.34792	0.0421375
659.68793	0.043012
660.02789	0.0425691
660.3678	0.0423006
660.70765	0.0423482
661.04745	0.0427654
661.3872	0.0420279
661.7269	0.0422377
662.06654	0.0428891
662.40613	0.0422367
662.74567	0.0422955
663.08516	0.0417866
663.42459	0.0424149
663.76397	0.0417762
664.1033	0.0429715
664.44258	0.0419534
664.7818	0.0429255
665.12097	0.0424823
665.46009	0.0423016
665.79916	0.0418442
666.13817	0.0424768
666.47713	0.042578
666.81604	0.0425169
667.15489	0.0421962
667.4937	0.0421525
667.83245	0.0430668
668.17115	0.0429226
668.50979	0.0429155
668.84838	0.0427654
669.18692	0.0430252
669.52541	0.0426539
669.86385	0.0433402
670.20223	0.0428289
670.54056	0.0441743
670.87883	0.043533
671.21706	0.0435469
671.55523	0.0440441
671.89335	0.0435649
672.23141	0.0437202
672.56943	0.0432698
672.90739	0.0435758
673.2453	0.0433703
673.58315	0.043286
673.92095	0.0437547
674.2587	0.0435696
674.5964	0.0436044
674.93405	0.0432352
675.27164	0.043195
675.60918	0.043027
675.94666	0.0429474
676.2841	0.0439238
676.62148	0.0429772
676.95881	0.0439299
677.29608	0.0432104
677.63331	0.0427851
677.97048	0.0439439
678.30759	0.0434167
678.64466	0.0433607
678.98167	0.0430208
679.31863	0.0427311
679.65554	0.0433508
679.99239	0.0431567
680.32919	0.0432955
680.66594	0.0442772
681.00264	0.0437608
681.33928	0.0437602
681.67587	0.043526
682.01241	0.0430545
682.34889	0.0428699
682.68532	0.0438855
683.0217	0.0439562
683.35803	0.0440761
683.6943	0.0430382
684.03052	0.0434695
684.36669	0.043586
684.70281	0.0433154
685.03887	0.0436333
685.37488	0.0427192
685.71083	0.0430588
686.04674	0.0428936
686.38259	0.0434554
686.71839	0.0429529
687.05413	0.0422032
687.38982	0.0422587
687.72546	0.0417508
688.06105	0.0418676
688.39658	0.0416847
688.73207	0.0412373
689.06749	0.040632
689.40287	0.0413219
689.73819	0.041696
690.07346	0.041067
690.40868	0.0426242
690.74384	0.0432788
691.07895	0.0426316
691.41401	0.0423153
691.74902	0.0429107
692.08397	0.042232
692.41887	0.0422051
692.75372	0.0416505
693.08851	0.0423495
693.42325	0.0423239
693.75794	0.0441166
694.09257	0.0425818
694.42716	0.0440272
694.76168	0.042527
695.09616	0.0440759
695.43058	0.0429383
695.76495	0.0427112
696.09927	0.0425871
696.43354	0.0429785
696.76775	0.0432841
697.10191	0.0438937
697.43601	0.0440686
697.77007	0.0428562
698.10406	0.0428371
698.43801	0.0429441
698.77191	0.0438513
699.10575	0.0430912
699.43953	0.0431763
699.77327	0.0437279
700.10695	0.0437494
700.44058	0.0423302
700.77416	0.0428704
701.10768	0.0433399
701.44115	0.0431864
701.77457	0.0432537
702.10793	0.0454016
702.44124	0.0433181
702.7745	0.044312
703.1077	0.043301
703.44086	0.0452386
703.77395	0.0443693
704.107	0.0447598
704.43999	0.044807
704.77293	0.0450775
705.10582	0.0439288
705.43865	0.044191
705.77143	0.0436521
706.10416	0.0447206
706.43684	0.0447535
706.76946	0.0445854
707.10203	0.043383
707.43454	0.0438685
707.767	0.0453625
708.09941	0.043949
708.43177	0.0438246
708.76407	0.0438547
709.09632	0.0432671
709.42852	0.0442861
709.76066	0.0437599
710.09275	0.0441391
710.42479	0.0430998
710.75678	0.0435475
711.08871	0.0454276
711.42058	0.0432291
711.75241	0.043213
712.08418	0.0441301
712.4159	0.0444392
712.74757	0.045122
713.07918	0.0445815
713.41074	0.0446724
713.74224	0.0437352
714.0737	0.0427143
714.4051	0.0446696
714.73644	0.044962
715.06774	0.042825
715.39898	0.0449955
715.73017	0.0447457
716.0613	0.0435967
716.39238	0.0439529
716.72341	0.0446646
717.05438	0.04512
717.38531	0.0428347
717.71617	0.0443794
718.04699	0.0456541
718.37775	0.0438001
718.70846	0.0441971
719.03911	0.0449297
719.36972	0.0449312
719.70027	0.0468087
720.03076	0.0474572
720.3612	0.0463369
720.69159	0.0453094
721.02193	0.0469582
721.35221	0.0467874
721.68244	0.0460621
722.01262	0.0452845
722.34274	0.0465655
722.67281	0.0482663
723.00283	0.0461736
723.33279	0.0462393
723.6627	0.045664
723.99256	0.0457564
724.32236	0.0461046
724.65211	0.046616
724.98181	0.046263
725.31145	0.046146
725.64104	0.0472711
725.97058	0.0461451
726.30007	0.0452773
726.6295	0.0460465
726.95887	0.0475816
727.2882	0.047364
727.61747	0.0470341
727.94669	0.0477317
728.27585	0.0482017
728.60496	0.0491885
728.93402	0.048027
729.26302	0.0475677
729.59197	0.0475636
729.92087	0.0486939
730.24971	0.0493077
730.57851	0.0487676
730.90724	0.0509144
731.23593	0.0493743
731.56456	0.0494513
731.89314	0.0505959
732.22166	0.0502736
732.55013	0.0471782
732.87855	0.0499038
733.20691	0.049371
733.53522	0.0495764
733.86348	0.0493077
734.19168	0.0514261
734.51983	0.0502187
734.84793	0.0507542
735.17597	0.0510952
735.50396	0.0497993
735.8319	0.0512158
736.15978	0.0519005
736.48761	0.0509622
736.81539	0.0513237
737.14311	0.0510158
737.47078	0.0511776
737.7984	0.0517708
738.12596	0.0546526
738.45347	0.0529574
738.78093	0.0505579
739.10833	0.0519544
739.43568	0.0527023
739.76297	0.0510379
740.09022	0.0523151
740.4174	0.0497881
740.74454	0.0507654
741.07162	0.0534689
741.39865	0.0513081
741.72562	0.0514929
742.05255	0.0518423
742.37941	0.0486739
742.70623	0.0554062
743.03299	0.0513749
743.3597	0.0511507
743.68635	0.0478795
744.01295	0.0519544
744.3395	0.0508778
744.66599	0.052461
744.99243	0.0505427
745.31882	0.0508578
745.64515	0.0524122
745.97143	0.0488445
746.29765	0.0509993
746.62383	0.0510635
746.94994	0.0471733
747.27601	0.0502845
747.60202	0.0542669
747.92798	0.0493558
748.25388	0.0524837
748.57973	0.0547971
748.90553	0.049873
749.23127	0.0507706
749.55696	0.0519329
749.8826	0.0487874
750.20818	0.0496572
750.53371	0.0502319
750.85919	0.051328
751.18461	0.0494224
751.50998	0.050388
751.8353	0.0509439
752.16056	0.0500848
752.48576	0.0493509
752.81092	0.0532886
753.13602	0.0506579
753.46107	0.0545987
753.78606	0.0521454
754.111	0.0529384
754.43589	0.0527906
754.76072	0.0532753
755.0855	0.0553662
755.41022	0.0534173
755.73489	0.0553711
756.05951	0.0519476
756.38407	0.051881
756.70859	0.0527738
757.03304	0.0522044
757.35745	0.0553649
757.6818	0.0539686
758.00609	0.052744
758.33033	0.0548782
758.65452	0.0513658
758.97866	0.0507871
759.30274	0.0495817
759.62677	0.0534983
759.95074	0.052184
760.27466	0.0457749
760.59853	0.0500399
760.92234	0.050832
761.2461	0.0523318
761.5698	0.0545586
761.89345	0.0507741
762.21705	0.0537475
762.5406	0.049711
762.86409	0.0525518
763.18752	0.0546292
763.5109	0.0519705
763.83423	0.055703
764.15751	0.0526096
764.48073	0.0522438
764.8039	0.0573112
765.12701	0.0508848
765.45007	0.053802
765.77308	0.0525606
766.09603	0.0520691
766.41893	0.0442884
766.74178	0.0476729
767.06457	0.050508
767.38731	0.0506365
767.70999	0.0538163
768.03262	0.0560436
768.3552	0.0496856
768.67772	0.0484171
769.00019	0.0473051
769.3226	0.0504028
769.64496	0.0496658
769.96727	0.0474755
770.28952	0.0483367
770.61172	0.0549399
770.93387	0.0528718
771.25596	0.0499717
771.578	0.0473154
771.89998	0.0541707
772.22191	0.0524641
772.54379	0.044697
772.86561	0.0490524
773.18738	0.0482097
773.5091	0.048356
773.83076	0.0529797
774.15236	0.0482363
774.47392	0.0484754
774.79542	0.0525692
775.11686	0.0554613
775.43825	0.0529779
775.75959	0.0534498
776.08087	0.0498399
776.4021	0.0600966
776.72328	0.059744
777.0444	0.0515918
777.36547	0.048323
777.68649	0.0513739
778.00745	0.0554916
778.32835	0.0508062
778.64921	0.0566641
778.97	0.0581513
779.29075	0.0473826
779.61144	0.0467587
779.93208	0.0589295
780.25266	0.0430561
780.57319	0.0552969
780.89366	0.0526442
781.21408	0.0478492
781.53445	0.0535573
781.85476	0.053255
782.17502	0.0572248
782.49523	0.0513424
782.81538	0.0571219
783.13548	0.0405376
783.45552	0.0555059
783.77551	0.0454425
784.09544	0.043563
784.41533	0.0573789
784.73515	0.054163
785.05493	0.0448515
785.37465	0.0535502
785.69431	0.0383345
786.01392	0.054045
786.33348	0.0495706
786.65298	0.0429383
786.97243	0.0538247
787.29183	0.056118
787.61117	0.0518729
787.93045	0.0501965
788.24969	0.0580804
788.56887	0.0532702
788.88799	0.0618079
789.20706	0.0521972
789.52608	0.0591208
789.84504	0.0480944
790.16395	0.0641458
790.4828	0.0517367
790.8016	0.054087
791.12035	0.0407257
791.43904	0.0451946
791.75768	0.0488678
792.07627	0.0401453
792.3948	0.0512425
792.71327	0.0512672
793.03169	0.0597302
793.35006	0.0467921
793.66838	0.0449574
793.98663	0.0493611
794.30484	0.0483269
794.62299	0.0374497
794.94109	0.037703
795.25913	0.0418028
795.57712	0.0563403
795.89506	0.0312649
796.21294	0.03919
796.53076	0.0531944
796.84853	0.0378532
797.16625	0.0436105
797.48392	0.0488513
797.80153	0.0458277
798.11908	0.0574494
798.43658	0.0514087
798.75403	0.0385943
799.07142	0.0593158
799.38876	0.0677582
799.70605	0.0588589
800.02328	0.0607884
800.34046	0.0518873
800.65758	0.0555601
800.97465	0.057845
801.29166	0.0605386
801.60862	0.0453143
801.92552	0.0519579
802.24238	0.0626894
802.55917	0.0525127
802.87592	0.0534521
803.1926	0.0514822
803.50924	0.0416558
803.82582	0.0451324
804.14234	0.0559465
804.45882	0.0562817
804.77523	0.0494269
805.0916	0.0495384
805.4079	0.0673466
805.72416	0.0568041
806.04036	0.0445619
806.35651	0.0361193
806.6726	0.054409
806.98863	0.0552456
807.30462	0.038926
807.62055	0.0705393
807.93642	0.0508829
808.25224	0.0426376
808.56801	0.0746592
808.88372	0.0431037
809.19938	0.0822666
809.51498	0.0605813
809.83053	0.0417496
810.14602	0.0292883
810.46146	0.0251803
810.77685	0.0449581
811.09218	0.0306629
811.40746	0.054604
811.72268	0.0701635
812.03785	0.0556822
812.35296	0.0513196
812.66802	0.0650861
812.98303	0.0459744
813.29798	0.0475126
813.61288	0.0448809
813.92772	0.0991012
814.24251	0.0156712
814.55724	0.0241652
814.87192	0.0360672
815.18654	0.0152486
815.50112	0.0449739
815.81563	0.0443863
816.13009	0.0595023
816.4445	0.0791321
816.75885	0.0521678
817.07315	0.0571383
817.3874	0.0749172
817.70159	0.0525363
818.01572	0.02384
818.3298	0.0283802
818.64383	0.0550625
818.9578	0.0357629
819.27172	0.0687456
819.58558	0.088184
819.89939	0.0242524
820.21315	0.0289573
820.52685	0.0675736
820.84049	0.0664786
821.15408	0.0279722
821.46762	0.0709185
821.7811	0.0447879
822.09453	0.098056
822.4079	0.088006
822.72122	0.0674122
823.03448	0.0713935
823.34769	0.0562572
823.66085	0.1108596
823.97395	0.0833111
824.287	0.0758014
824.59999	0.0378168
824.91292	0.0718695
825.22581	0.0502644
825.53864	0.0632628
825.85141	0.0553286
826.16413	0.1430551
826.47679	0.0186062
826.7894	0.0422253
827.10196	0.0332865
827.41446	0.0700077
827.72691	0.0614566
828.0393	0.0381466
828.35164	0.039722
828.66392	0.1393753
828.97615	0.0975584
829.28832	0.0968561
829.60044	0.0520157
829.91251	0.0407211
830.22452	0.0876014
830.53647	0.0770959
830.84837	0.0782706
831.16022	0.1019868
831.47201	0.1075073
831.78375	0.1029793
832.09543	0.1495265
832.40706	0.1151887
832.71863	0.1207341
833.03015	0.0367982
833.34162	0.0262023
833.65303	0.0788743
833.96438	0.047198
834.27568	0.1198665
834.58693	0.174664
834.89812	0.0486058
835.20926	0.071041
835.52034	0.0602364
835.83136	0.0884092
836.14234	0.0506909
836.45326	0.0798695
836.76412	0.097729
837.07493	0.1309774
837.38568	0.0471547
837.69638	0.1145296
838.00703	0.0193143
838.31762	0.0476359
838.62815	0.0885694
838.93863	0.0147084
839.24906	0.0663659
839.55943	0.0091859
839.86975	0.1017897
840.18001	0.0671255
840.49022	0.0429404
840.80037	0.0216116
841.11047	0.0602473
841.42051	0.1006938
841.7305	0.1188084
842.04043	0.1102853
842.35031	0.0925404
842.66013	0.0816364
842.9699	0.0183599
843.27962	0.0025168
843.58928	0.0184992
843.89888	0.0762903
844.20844	0.0245975
844.51793	0.0097316
844.82737	0.0719566
845.13676	0.0568046
845.44609	0.0849855
845.75537	0.1454535
846.06459	0.2184373
846.37376	0.1045448
846.68287	-0.0248883
846.99193	0.0250048
847.30093	0.0362766
847.60988	0.0601123
847.91877	0.0783442
848.22761	0.1344082
848.53639	0.1432786
848.84512	0.0107492
849.1538	-0.0326434
849.46242	0.1356144
849.77098	0.0996298
850.07949	-0.0030185
850.38795	0.0870686
850.69635	0.053502
851.00469	0.1015764
851.31298	0.1564791
851.62122	-0.0027015
851.9294	0.1388909
852.23752	0.0067438
852.5456	0.0138812
852.85361	0.059627
853.16157	0.0740359
853.46948	0.0516093
853.77733	0.0782677
854.08513	0.0622626
854.39287	0.1972981
854.70056	0.1257251
855.00819	-0.0271621
855.31577	0.0768486
855.62329	0.3207074
855.93076	0.0311869
856.23817	0.0136895
856.54553	-0.0336646
856.85283	0.1784633
857.16008	0.2290952
857.46727	0.0554185
857.77441	0.2188684
858.08149	0.196412
858.38852	0.0308024
858.69549	0.2567841
859.00241	0.1294802
859.30927	0.1663361
859.61608	0.0051407
859.92284	0.0107665
860.22954	0.0230874
860.53618	0.0875742
860.84277	0.1460136
861.1493	0.0450493
861.45578	0.025901
861.7622	0.0868176
862.06857	0.1202775
862.37489	0.0983056
862.68115	0.1945408
862.98735	0.1382501
863.2935	0.0823215
863.59959	0.1078341
863.90563	0.116157
864.21161	0.1294275
864.51754	-0.0379883
864.82342	0.040911
865.12924	0.102565
865.435	0.0733374
865.74071	0.0117332
866.04636	-0.0042362
866.35196	0.1334383
866.65751	0.0473622
866.96299	0.0926805
867.26843	0.0602981
867.57381	0.2003846
867.87913	-0.0244829
868.1844	0.0509078
868.48961	-0.0660749
868.79477	0.127324
869.09987	0.0021548
869.40492	0.1905012
869.70992	-0.107236
870.01485	0.0878862
870.31974	0.0040387
870.62457	-0.0192253
870.92934	0.0447828
871.23406	-0.0522582
871.53872	0.0266019
871.84333	0.143793
872.14788	0.4130308
872.45238	0.0627039
872.75682	0.1999132
873.06121	0.139227
873.36554	0.2067504
873.66982	-0.0529839
873.97404	0.1563386
874.2782	0.2791227
874.58232	0.1739944
874.88637	0.1089803
875.19037	0.2150347
875.49432	0.0445427
875.79821	0.153433
876.10205	0.0924336
876.40583	0.0757121
876.70955	0.3009168
877.01322	0.2453149
877.31684	0.1670912
877.6204	0.0188162
877.9239	0.1124334
878.22735	0.2084683
878.53075	0.3017108
878.83409	0.0608447
879.13737	0.0869184
879.4406	0.1545186
879.74377	0.048353
880.04689	0.1045291
880.34996	0.0194809
880.65296	0.129624
880.95592	0.1329394
881.25882	0.1791361
881.56166	0.4637454
881.86445	0.0028572
882.16718	0.245441
882.46985	-0.0452378
882.77248	0.3166775
883.07504	-0.0399807
883.37755	-0.0725507
883.68001	-0.0023494
883.98241	-0.0481442
884.28475	-0.3531941
884.58704	-0.0977382
884.88928	0.2056734
885.19146	0.064289
885.49358	-0.1072818
885.79565	0.0206846
886.09767	0.3529739
886.39962	0.3008847
886.70153	0.0213631
887.00338	0.0142643
887.30517	0.0019575
887.60691	0.1514925
887.90859	0.3064281
888.21021	0.4095219
888.51179	0.1746435
888.8133	0.1812695
889.11476	0.4334068
889.41617	0.267591
889.71752	-0.0321169
890.01881	0.0068853
890.32005	0.2879309
890.62124	0.0508024
890.92236	-0.0048543
891.22344	0.2152828
891.52446	0.0604995
891.82542	0.2156993
892.12633	0.2492351
892.42718	0.1157498
892.72797	-0.2718067
893.02871	0.1880931
893.3294	0.1120758
893.63003	-0.052138
893.93061	0.0468812
894.23113	0.7377972
894.53159	0.6632099
894.832	-0.279258
895.13235	0.1714188
895.43265	0.5287906
895.73289	0.0387361
896.03308	0.4099874
896.33321	0.2113959
896.63329	0.1037814
896.93331	0.115372
897.23327	0.2294712
897.53318	-0.0216848
897.83304	0.0713612
898.13284	0.0283571
898.43258	-0.1350839
898.73227	-0.080244
899.0319	0.0597658
899.33148	0.2149276
899.631	0.1099739
899.93047	0.3299517
900.22988	0.2542895
900.52924	1.0371466
900.82854	-0.6239365
901.12778	-0.0383374
901.42697	-0.5382059
901.7261	0.0833057
902.02518	-0.2166411
902.3242	0.1175988
902.62317	-0.04915
902.92208	0.4663499
903.22094	-0.1581669
903.51974	0.187396
903.81848	0.0762627
904.11717	-0.1896312
904.41581	-0.1197756
904.71439	0.3051079
905.01291	-0.0212469
905.31138	-0.0930856
905.60979	0.5578945
905.90815	-0
906.20645	-0.0806033
906.50469	0.2430104
906.80288	0.1067054
907.10102	0.1149259
907.3991	0.2579985
907.69712	-0
907.99509	0.3397377
908.293	-0.0661961
908.59085	0.2313168
908.88865	-0
909.1864	-0.1373033
909.48409	0.1943189
909.78172	-0.0915661
910.0793	0.6374325
910.37683	0.5245526
910.67429	0.439115
910.9717	0.1134107
911.26906	0.2499353
911.56636	0.0787836
911.86361	0.7806631
912.16079	1.5105025
912.45793	0.1358122
912.75501	0.0296725
913.05203	-0.0661866
913.34899	-0.0438112
913.64591	-0.0142685
913.94276	0.2871087
914.23956	0.2479306
914.5363	0.5972291
914.83299	0.5942507
915.12963	0.1378212
915.4262	0.0929073
915.72272	-0.0821117
916.01919	-0.1398195
916.3156	0.0929526
916.61195	0.1404694
916.90825	1.3228753
917.2045	0.305052
917.50068	0.2855151
917.79681	0.2457596
918.09289	0.335475
918.38891	0.0632708
918.68488	0.0335569
918.98078	0.0287855
919.27664	0.1353567
919.57243	0.2880824
919.86818	-0.1233697
920.16386	-0.1376692
920.45949	0.0104999
920.75507	0.2382929
921.05059	0.2702671
921.34605	-0.0999941
921.64146	-0.0855571
921.93681	0.281077
922.2321	0.3370161
922.52734	0.4914794
922.82253	0.203305
923.11765	0.0283793
923.41273	-0.215394
923.70774	0.2024757
924.0027	0.2504126
924.29761	0.0862056
924.59246	-0.1504602
924.88725	0.0337122
925.18199	-0
925.47667	0.1713485
925.7713	0.1271166
926.06587	0.1966604
926.36038	0.1484305
926.65484	0.6268431
926.94925	0.0386111
927.24359	0.4654519
927.53788	0.0727456
927.83212	-0.1131956
928.1263	0.1672481
928.42042	-0.0092801
928.71449	0.3836786
929.0085	0.5958754
929.30246	-0.2078103
929.59636	0.0607913
929.8902	0.269567
930.18399	0.4887316
930.47773	0.3263839
930.7714	0.3041423
931.06502	-0.0353098
931.35859	0.08067
931.6521	0.1436544
931.94555	0.0026644
932.23895	0.0982225
932.53229	1.4213964
932.82558	-0.1921067
933.11881	0.2110053
933.41198	-0.0416551
933.7051	0.1806908
933.99816	-0.1435901
934.29117	-0.0283336
934.58412	0.0028423
934.87701	0.595858
935.16985	0.0455726
935.46263	0.1096047
935.75536	0.4912963
936.04803	0.2486562
936.34065	1.0005541
936.6332	0.5041921
936.92571	0.0856613
937.21815	-0.0027733
937.51054	0.1611831
937.80288	-0.2133152
938.09516	0.6324186
938.38738	0.5899317
938.67955	0.1069611
938.97166	0.315514
939.26371	0.090604
939.55571	0.1141784
939.84766	-0.712058
940.13954	-0.0354569
940.43137	0.7854943
940.72315	0.3370783
941.01487	0.5042985
941.30653	0.3693777
941.59814	0.2610451
941.88969	-0.1411946
942.18118	-0
942.47262	0.0942011
942.76401	-0.0808199
943.05533	-0.530592
943.3466	0.1395185
943.63782	0.1356948
943.92898	0.2425523
944.22008	-0.2029777
944.51113	-0.014297
944.80212	0.7931407
945.09305	0.2270734
945.38393	0.8803027
945.67475	-0
945.96552	0.1706883
946.25623	-0
946.54688	0.0639427
946.83748	-0
947.12802	1.9676331
947.41851	-0.5696049
947.70894	0.0463492
947.99931	0.287647
948.28963	-0
948.57989	0.3594136
948.8701	0.5494338
949.16024	-0
949.45034	-0
949.74037	-0.0721769
950.03036	-0.0092176
950.32028	0.1544406
950.61015	-0.1768992
950.89996	0.3830344
951.18972	0.0339728
951.47942	0.6124811
951.76906	-0
952.05865	0.094113
952.34818	-0.5192166
952.63766	-0.3546695
952.92708	0.3505352
953.21644	-0.1837343
953.50575	0.8324286
953.795	-0
954.08419	0.6342693
954.37333	1.2136328
954.66241	0.1878789
954.95144	0.8347018
955.24041	0.2147861
955.52932	0.0532807
955.81818	-0
956.10698	0.0975313
956.39572	-0.0974585
956.68441	-0
956.97305	0.1236695
957.26162	-0.0587655
957.55014	-0.4485448
957.83861	-0
958.12701	-0.0819153
958.41536	0.664855
958.70366	0.6077371
958.9919	-0.1133017
959.28008	0.2022606
959.56821	0.0993484
959.85628	0.3043955
960.14429	-0.1871289
960.43225	0.6284767
960.72015	0.514468
961.00799	0.1553077
961.29578	0.4666962
961.58352	-0
961.87119	0.1070965
962.15881	0.5771445
962.44637	0.4271197
962.73388	-0.0458876
963.02133	-0.2222502
963.30873	0.1913551
963.59607	-0.6840821
963.88335	0.3716214
964.17057	0.3574166
964.45774	-0
964.74485	-0.0285245
965.03191	0.1044871
965.31891	0.038143
965.60586	0.5750142
965.89274	0.4854483
966.17957	0.0293164
966.46635	-0.4790408
966.75307	0.0043575
967.03973	-0
967.32634	-0
967.61289	-0
967.89938	0.263028
968.18581	-0
968.4722	1.0554277
968.75852	0.4675044
969.04479	0.6819304
969.331	0.8474551
969.61715	1.8164158
969.90325	0.2553703
970.18929	1.4913617
970.47528	-0.4256653
970.76121	-0.0455685
971.04708	-0.0315907
971.3329	0.0294678
971.61866	0.4639098
971.90436	0.7096405
972.19001	-0
972.4756	-0.2016061
972.76113	-0.3206646
973.04661	-0.2481943
973.33203	-0.5960452
973.61739	0.1074954
973.9027	-0.1838075
974.18795	0.044546
974.47315	0.6423221
974.75829	-0.0996613
975.04337	0.442052
975.3284	0.0406129
975.61337	-0
975.89828	-0
976.18314	0.0272525
976.46794	-0
976.75268	-0
977.03737	-0
977.322	0.3805054
977.60657	0.2960438
977.89109	0.1384374
978.17555	-0
978.45995	-0
978.7443	-0
979.02859	-1.4539296
979.31283	0.518456
979.59701	0.187763
979.88113	0.0370038
980.16519	0.3453897
980.4492	0.8271453
980.73315	-0.4524488
981.01705	0.2549361
981.30089	0.1746631
981.58467	-0
981.8684	0.4901186
982.15207	-0.5965039
982.43568	-0.5071215
982.71923	0.0084634
983.00273	0.573713
983.28618	0.0859059
983.56956	-0
983.85289	-0.6141871
984.13617	-0.499791
984.41938	0.0140107
984.70254	-0.1650362
984.98565	0.0335992
985.26869	-1.1572138
985.55168	0.3881205
985.83462	-0
986.11749	-0
986.40031	0.0725507
986.68308	0.2745429
986.96578	1.0185772
987.24844	-0
987.53103	0.2863067
987.81357	0.5717509
988.09605	-0.4139001
988.37847	0.3955005
988.66084	-0.1836444
988.94315	-0
989.2254	-0.3303701
989.5076	0.3140004
989.78974	0.1087345
990.07182	-0.2321952
990.35385	-0
990.63582	-0.6744469
990.91773	0.1313749
991.19959	-0
991.48139	-0.052916
991.76313	1.3793487
992.04482	-0
992.32645	-0.1139902
992.60802	-0
992.88954	-0
993.171	-0.2801508
993.4524	0.9146604
993.73375	0.552842
994.01504	0.5511947
994.29627	0.2759832
994.57745	-0
994.85857	0.1579817
995.13963	-0.0667737
995.42064	0.4487656
995.70159	-0
995.98248	0.481348
996.26332	0.4741517
996.5441	-0.0779645
996.82482	-0
997.10548	0.01186
997.38609	-0
997.66664	0.0985049
997.94714	-0
998.22758	-0
998.50796	0.3964474
998.78828	0.2512136
999.06855	0.0822611
999.34876	-0.4071997
999.62892	-0
999.90901	1.0577712
1000.18905	0.0387782
1000.46904	0.501595
1000.74897	1.0138564
1001.02884	1.0040346
1001.30865	0.7243294
1001.58841	0.3794294
1001.8681	-0.1425809
1002.14775	0.3912183
1002.42733	0.5370092
1002.70686	-0
1002.98633	0.5874875
1003.26575	0.0527549
1003.54511	-0
1003.82441	-0.0111105
1004.10365	0.6434081
1004.38284	0.0370335
1004.66197	0.2724861
1004.94105	-0.0214425
1005.22006	0.2433757
1005.49902	1.3578703
1005.77793	-0
1006.05677	-0
1006.33556	0.3366249
1006.6143	0.2146486
1006.89297	0.2013336
1007.17159	0.0695657
1007.45015	0.07684
1007.72866	-0.292747
1008.00711	0.0798279
1008.2855	-0.0157665
1008.56383	0.7296472
1008.84211	-0
1009.12033	-0
1009.39849	-0.3602613
1009.6766	-0.0161533
1009.95465	0.0398382
1010.23264	-0.4488553
1010.51058	-0.1290721
1010.78845	0.2897373
1011.06628	0.313968
1011.34404	0.1657595
1011.62175	0.2783616
1011.8994	-0.3367861
1012.17699	-0.2721122
1012.45453	0.3661747
1012.73201	0.0317188
1013.00943	-0.2068067
1013.2868	1.3131333
1013.5641	-0
1013.84136	0.6542835
1014.11855	-0
1014.39569	0.1890562
1014.67277	0.4817736
1014.94979	-0.7266747
1015.22676	0.1876085
1015.50367	0.1953362
1015.78052	0.1626989
1016.05731	-0
1016.33405	0.1175318
1016.61073	0.4989575
1016.88736	-0
1017.16392	-0.2065374
1017.44043	-0
1017.71689	0.3499749
1017.99328	0.3334461
1018.26962	0.3328246
1018.5459	0.3328246
1018.82213	0.3328246
